Y1,Y2,Y3,Y4,Y5,Y6,Y7,Y8,Y9,Y10,Y11,Y12
-0.145,-0.065,-0.205,-0.18,-0.365,-0.31,-0.385,-0.25,-0.32,-0.07,-0.265,-0.18
-0.145,-0.065,-0.205,-0.18,-0.35,-0.3,-0.375,-0.255,-0.33,-0.085,-0.28,-0.175
-0.145,-0.06,-0.21,-0.19,-0.36,-0.28,-0.37,-0.235,-0.325,-0.085,-0.29,-0.195
-0.145,-0.065,-0.21,-0.19,-0.35,-0.285,-0.375,-0.25,-0.305,-0.09,-0.28,-0.21
-0.145,-0.065,-0.23,-0.18,-0.36,-0.305,-0.385,-0.225,-0.325,-0.085,-0.265,-0.185
-0.145,-0.065,-0.24,-0.185,-0.37,-0.29,-0.405,-0.245,-0.32,-0.07,-0.265,-0.18
-0.145,-0.065,-0.23,-0.165,-0.36,-0.295,-0.385,-0.25,-0.325,-0.08,-0.265,-0.175
-0.145,-0.065,-0.225,-0.165,-0.355,-0.27,-0.37,-0.255,-0.335,-0.09,-0.27,-0.175
-0.12,-0.08,-0.235,-0.175,-0.345,-0.27,-0.37,-0.235,-0.315,-0.095,-0.285,-0.185
-0.135,-0.08,-0.25,-0.185,-0.345,-0.29,-0.36,-0.225,-0.32,-0.075,-0.265,-0.195
-0.145,-0.085,-0.265,-0.2,-0.35,-0.28,-0.375,-0.24,-0.32,-0.085,-0.255,-0.195
-0.15,-0.085,-0.26,-0.195,-0.35,-0.275,-0.37,-0.245,-0.33,-0.08,-0.255,-0.185
-0.16,-0.075,-0.245,-0.185,-0.345,-0.285,-0.375,-0.255,-0.34,-0.08,-0.27,-0.18
-0.155,-0.07,-0.215,-0.18,-0.335,-0.28,-0.355,-0.255,-0.345,-0.09,-0.27,-0.2
-0.16,-0.07,-0.215,-0.195,-0.33,-0.265,-0.34,-0.235,-0.345,-0.095,-0.28,-0.2
-0.175,-0.065,-0.245,-0.195,-0.34,-0.28,-0.345,-0.23,-0.325,-0.085,-0.265,-0.195
-0.18,-0.055,-0.28,-0.215,-0.345,-0.28,-0.34,-0.235,-0.325,-0.07,-0.26,-0.19
-0.185,-0.05,-0.275,-0.2,-0.35,-0.285,-0.345,-0.255,-0.345,-0.07,-0.265,-0.18
-0.17,-0.05,-0.275,-0.21,-0.345,-0.285,-0.325,-0.255,-0.35,-0.09,-0.275,-0.185
-0.155,-0.04,-0.295,-0.195,-0.345,-0.28,-0.31,-0.26,-0.35,-0.09,-0.285,-0.185
-0.175,-0.04,-0.31,-0.225,-0.34,-0.26,-0.305,-0.245,-0.345,-0.1,-0.29,-0.205
-0.18,-0.055,-0.325,-0.235,-0.34,-0.27,-0.305,-0.225,-0.325,-0.09,-0.28,-0.21
-0.19,-0.075,-0.34,-0.245,-0.345,-0.265,-0.3,-0.225,-0.33,-0.08,-0.28,-0.2
-0.18,-0.08,-0.34,-0.245,-0.36,-0.28,-0.305,-0.23,-0.34,-0.08,-0.285,-0.195
-0.155,-0.085,-0.325,-0.22,-0.35,-0.28,-0.3,-0.235,-0.34,-0.07,-0.29,-0.19
-0.135,-0.07,-0.315,-0.23,-0.345,-0.28,-0.285,-0.235,-0.335,-0.085,-0.295,-0.195
-0.155,-0.08,-0.31,-0.22,-0.335,-0.27,-0.265,-0.225,-0.335,-0.1,-0.3,-0.2
-0.19,-0.08,-0.315,-0.225,-0.345,-0.255,-0.265,-0.2,-0.32,-0.1,-0.295,-0.215
-0.205,-0.09,-0.33,-0.24,-0.345,-0.265,-0.27,-0.21,-0.325,-0.075,-0.285,-0.215
-0.235,-0.095,-0.33,-0.225,-0.355,-0.28,-0.28,-0.21,-0.32,-0.075,-0.285,-0.19
-0.225,-0.09,-0.325,-0.21,-0.345,-0.28,-0.275,-0.215,-0.34,-0.08,-0.295,-0.2
-0.245,-0.095,-0.325,-0.22,-0.335,-0.27,-0.275,-0.205,-0.335,-0.085,-0.3,-0.2
-0.25,-0.11,-0.335,-0.23,-0.325,-0.265,-0.265,-0.2,-0.33,-0.1,-0.305,-0.21
-0.26,-0.12,-0.345,-0.23,-0.32,-0.265,-0.265,-0.19,-0.34,-0.09,-0.305,-0.215
-0.275,-0.145,-0.35,-0.24,-0.305,-0.275,-0.275,-0.19,-0.335,-0.08,-0.3,-0.215
-0.275,-0.135,-0.35,-0.245,-0.305,-0.275,-0.295,-0.195,-0.34,-0.07,-0.29,-0.21
-0.275,-0.105,-0.35,-0.245,-0.3,-0.265,-0.29,-0.195,-0.345,-0.07,-0.29,-0.205
-0.265,-0.095,-0.345,-0.24,-0.285,-0.25,-0.29,-0.2,-0.355,-0.09,-0.315,-0.215
-0.255,-0.105,-0.35,-0.235,-0.28,-0.23,-0.27,-0.175,-0.34,-0.085,-0.31,-0.225
-0.265,-0.12,-0.365,-0.24,-0.265,-0.245,-0.275,-0.165,-0.33,-0.075,-0.29,-0.23
-0.275,-0.135,-0.36,-0.255,-0.275,-0.25,-0.285,-0.17,-0.34,-0.06,-0.28,-0.21
-0.29,-0.125,-0.35,-0.255,-0.27,-0.255,-0.3,-0.175,-0.34,-0.065,-0.28,-0.215
-0.29,-0.125,-0.355,-0.25,-0.245,-0.25,-0.295,-0.18,-0.345,-0.07,-0.29,-0.215
-0.29,-0.115,-0.345,-0.23,-0.24,-0.23,-0.27,-0.185,-0.35,-0.075,-0.305,-0.21
-0.29,-0.115,-0.345,-0.24,-0.23,-0.21,-0.24,-0.18,-0.335,-0.085,-0.295,-0.225
-0.285,-0.125,-0.35,-0.25,-0.235,-0.205,-0.245,-0.18,-0.345,-0.075,-0.295,-0.235
-0.295,-0.14,-0.365,-0.265,-0.23,-0.215,-0.26,-0.175,-0.335,-0.055,-0.29,-0.23
-0.305,-0.14,-0.38,-0.29,-0.245,-0.23,-0.295,-0.195,-0.34,-0.05,-0.305,-0.21
-0.285,-0.13,-0.405,-0.31,-0.245,-0.22,-0.31,-0.21,-0.335,-0.06,-0.305,-0.215
-0.275,-0.125,-0.425,-0.305,-0.24,-0.22,-0.315,-0.215,-0.345,-0.06,-0.32,-0.22
-0.275,-0.14,-0.44,-0.335,-0.25,-0.195,-0.325,-0.21,-0.33,-0.075,-0.31,-0.225
-0.28,-0.145,-0.47,-0.355,-0.255,-0.19,-0.35,-0.215,-0.32,-0.06,-0.315,-0.24
-0.285,-0.15,-0.52,-0.335,-0.255,-0.2,-0.365,-0.22,-0.325,-0.05,-0.3,-0.22
-0.305,-0.15,-0.54,-0.27,-0.27,-0.2,-0.385,-0.235,-0.32,-0.045,-0.31,-0.22
-0.29,-0.13,-0.49,-0.16,-0.265,-0.195,-0.38,-0.24,-0.335,-0.045,-0.31,-0.22
-0.3,-0.115,-0.39,-0.05,-0.265,-0.2,-0.39,-0.24,-0.35,-0.06,-0.325,-0.24
-0.28,-0.125,-0.26,0.01,-0.265,-0.18,-0.37,-0.235,-0.34,-0.06,-0.32,-0.22
-0.29,-0.135,-0.115,0.065,-0.255,-0.21,-0.37,-0.215,-0.325,-0.055,-0.32,-0.225
-0.3,-0.16,0.085,0.135,-0.25,-0.205,-0.375,-0.23,-0.32,-0.04,-0.305,-0.215
-0.315,-0.195,0.36,0.24,-0.235,-0.21,-0.38,-0.235,-0.335,-0.05,-0.315,-0.205
-0.32,-0.2,0.615,0.355,-0.23,-0.22,-0.39,-0.245,-0.345,-0.05,-0.31,-0.21
-0.335,-0.205,0.78,0.395,-0.25,-0.21,-0.385,-0.255,-0.33,-0.05,-0.325,-0.215
-0.36,-0.225,0.835,0.255,-0.26,-0.215,-0.39,-0.245,-0.33,-0.06,-0.335,-0.23
-0.385,-0.255,0.72,-0.015,-0.28,-0.225,-0.38,-0.23,-0.305,-0.055,-0.305,-0.225
-0.385,-0.3,0.41,-0.295,-0.305,-0.22,-0.39,-0.225,-0.305,-0.04,-0.31,-0.21
-0.405,-0.29,0.03,-0.405,-0.34,-0.225,-0.4,-0.245,-0.285,-0.04,-0.3,-0.215
-0.455,-0.235,-0.255,-0.39,-0.33,-0.24,-0.405,-0.24,-0.285,-0.06,-0.31,-0.205
-0.485,-0.13,-0.415,-0.34,-0.335,-0.225,-0.39,-0.24,-0.275,-0.06,-0.31,-0.2
-0.485,-0.035,-0.47,-0.305,-0.33,-0.22,-0.385,-0.245,-0.28,-0.065,-0.31,-0.215
-0.425,0.05,-0.465,-0.31,-0.345,-0.225,-0.385,-0.235,-0.265,-0.045,-0.31,-0.235
-0.33,0.12,-0.435,-0.295,-0.35,-0.225,-0.395,-0.245,-0.26,-0.02,-0.295,-0.23
-0.22,0.2,-0.395,-0.295,-0.36,-0.245,-0.415,-0.245,-0.255,-0.03,-0.285,-0.21
-0.07,0.31,-0.375,-0.28,-0.36,-0.245,-0.405,-0.265,-0.25,-0.035,-0.295,-0.205
0.12,0.435,-0.37,-0.27,-0.36,-0.235,-0.4,-0.265,-0.245,-0.03,-0.305,-0.215
0.375,0.535,-0.375,-0.265,-0.365,-0.235,-0.385,-0.245,-0.225,-0.035,-0.31,-0.22
0.62,0.58,-0.375,-0.285,-0.365,-0.245,-0.4,-0.235,-0.21,-0.02,-0.31,-0.225
0.78,0.475,-0.39,-0.29,-0.355,-0.25,-0.4,-0.235,-0.19,-0.01,-0.3,-0.215
0.84,0.21,-0.4,-0.29,-0.365,-0.25,-0.42,-0.25,-0.22,0.005,-0.285,-0.215
0.765,-0.085,-0.38,-0.29,-0.36,-0.245,-0.42,-0.27,-0.22,-0.015,-0.295,-0.195
0.52,-0.23,-0.385,-0.285,-0.36,-0.235,-0.435,-0.27,-0.23,0,-0.305,-0.195
0.17,-0.25,-0.385,-0.29,-0.36,-0.23,-0.45,-0.29,-0.23,-0.015,-0.305,-0.205
-0.165,-0.215,-0.385,-0.29,-0.355,-0.23,-0.495,-0.3,-0.22,-0.01,-0.3,-0.23
-0.365,-0.18,-0.385,-0.285,-0.375,-0.24,-0.52,-0.33,-0.235,0,-0.295,-0.215
-0.435,-0.185,-0.37,-0.285,-0.375,-0.25,-0.55,-0.33,-0.245,0.01,-0.295,-0.205
-0.425,-0.16,-0.37,-0.285,-0.365,-0.245,-0.555,-0.375,-0.26,0.005,-0.305,-0.2
-0.37,-0.15,-0.36,-0.265,-0.36,-0.245,-0.565,-0.39,-0.25,0,-0.31,-0.2
-0.33,-0.15,-0.38,-0.265,-0.37,-0.23,-0.58,-0.41,-0.24,-0.005,-0.32,-0.225
-0.325,-0.18,-0.38,-0.275,-0.36,-0.24,-0.625,-0.41,-0.23,0.015,-0.315,-0.21
-0.335,-0.18,-0.385,-0.285,-0.38,-0.245,-0.66,-0.385,-0.23,0.025,-0.3,-0.205
-0.345,-0.16,-0.37,-0.28,-0.39,-0.245,-0.61,-0.305,-0.245,0.025,-0.295,-0.2
-0.33,-0.165,-0.37,-0.27,-0.385,-0.255,-0.505,-0.2,-0.27,0.005,-0.3,-0.19
-0.325,-0.17,-0.365,-0.27,-0.385,-0.235,-0.395,-0.075,-0.285,0.005,-0.295,-0.205
-0.315,-0.165,-0.375,-0.275,-0.365,-0.23,-0.24,0.05,-0.255,0.01,-0.3,-0.205
-0.31,-0.185,-0.385,-0.27,-0.375,-0.24,-0.085,0.185,-0.23,0.015,-0.28,-0.22
-0.32,-0.185,-0.39,-0.285,-0.375,-0.25,0.115,0.295,-0.215,0.025,-0.26,-0.21
-0.335,-0.185,-0.39,-0.3,-0.4,-0.27,0.385,0.425,-0.21,0.01,-0.25,-0.19
-0.34,-0.17,-0.385,-0.28,-0.395,-0.29,0.66,0.525,-0.225,0,-0.24,-0.195
-0.325,-0.16,-0.385,-0.275,-0.43,-0.31,0.865,0.65,-0.26,-0.01,-0.245,-0.19
-0.345,-0.155,-0.395,-0.285,-0.46,-0.325,0.955,0.73,-0.285,-0.025,-0.24,-0.2
-0.335,-0.175,-0.39,-0.285,-0.48,-0.365,0.91,0.66,-0.28,-0.015,-0.23,-0.21
-0.33,-0.195,-0.4,-0.295,-0.51,-0.38,0.66,0.4,-0.305,-0.005,-0.22,-0.205
-0.335,-0.185,-0.405,-0.29,-0.57,-0.36,0.27,0.04,-0.315,-0.015,-0.21,-0.185
-0.33,-0.185,-0.39,-0.285,-0.585,-0.26,-0.14,-0.23,-0.335,-0.035,-0.195,-0.175
-0.325,-0.175,-0.395,-0.275,-0.515,-0.115,-0.425,-0.31,-0.345,-0.035,-0.205,-0.17
-0.33,-0.175,-0.39,-0.265,-0.385,0.01,-0.52,-0.285,-0.335,-0.05,-0.195,-0.18
-0.33,-0.195,-0.405,-0.285,-0.24,0.1,-0.515,-0.275,-0.335,-0.035,-0.185,-0.185
-0.345,-0.19,-0.405,-0.3,-0.085,0.195,-0.49,-0.28,-0.34,-0.03,-0.18,-0.175
-0.355,-0.18,-0.4,-0.305,0.125,0.29,-0.465,-0.28,-0.34,-0.025,-0.175,-0.16
-0.335,-0.165,-0.375,-0.285,0.405,0.42,-0.445,-0.28,-0.355,-0.03,-0.185,-0.155
-0.325,-0.17,-0.38,-0.27,0.675,0.545,-0.43,-0.29,-0.355,-0.055,-0.205,-0.155
-0.305,-0.17,-0.39,-0.28,0.865,0.615,-0.435,-0.29,-0.355,-0.055,-0.215,-0.16
-0.32,-0.17,-0.395,-0.275,0.935,0.505,-0.435,-0.285,-0.345,-0.055,-0.205,-0.165
-0.32,-0.19,-0.395,-0.29,0.84,0.22,-0.45,-0.285,-0.365,-0.05,-0.205,-0.145
-0.33,-0.185,-0.39,-0.28,0.555,-0.13,-0.455,-0.295,-0.385,-0.045,-0.2,-0.125
-0.34,-0.18,-0.39,-0.29,0.14,-0.35,-0.45,-0.305,-0.38,-0.035,-0.205,-0.13
-0.335,-0.17,-0.385,-0.28,-0.2,-0.365,-0.45,-0.305,-0.385,-0.06,-0.225,-0.14
-0.34,-0.175,-0.405,-0.28,-0.405,-0.305,-0.44,-0.31,-0.375,-0.055,-0.23,-0.155
-0.345,-0.19,-0.4,-0.285,-0.485,-0.285,-0.445,-0.3,-0.365,-0.065,-0.225,-0.16
-0.355,-0.2,-0.405,-0.285,-0.485,-0.28,-0.455,-0.285,-0.37,-0.05,-0.195,-0.145
-0.355,-0.195,-0.395,-0.285,-0.45,-0.275,-0.46,-0.305,-0.375,-0.05,-0.17,-0.135
-0.34,-0.185,-0.39,-0.295,-0.385,-0.265,-0.46,-0.32,-0.38,-0.045,-0.175,-0.145
-0.33,-0.17,-0.395,-0.275,-0.385,-0.265,-0.45,-0.32,-0.38,-0.065,-0.215,-0.165
-0.33,-0.17,-0.39,-0.28,-0.385,-0.255,-0.45,-0.305,-0.375,-0.055,-0.245,-0.175
-0.33,-0.185,-0.4,-0.29,-0.39,-0.26,-0.445,-0.305,-0.37,-0.055,-0.25,-0.185
-0.34,-0.195,-0.405,-0.295,-0.385,-0.27,-0.45,-0.305,-0.375,-0.05,-0.24,-0.18
-0.35,-0.175,-0.405,-0.295,-0.395,-0.27,-0.465,-0.305,-0.39,-0.06,-0.26,-0.175
-0.325,-0.2,-0.39,-0.285,-0.39,-0.275,-0.455,-0.31,-0.425,-0.085,-0.28,-0.175
-0.325,-0.185,-0.39,-0.275,-0.385,-0.26,-0.44,-0.31,-0.455,-0.13,-0.305,-0.175
-0.33,-0.18,-0.395,-0.295,-0.385,-0.245,-0.435,-0.315,-0.485,-0.15,-0.315,-0.185
-0.33,-0.185,-0.4,-0.305,-0.39,-0.25,-0.435,-0.305,-0.485,-0.17,-0.315,-0.195
-0.335,-0.205,-0.4,-0.305,-0.395,-0.265,-0.44,-0.31,-0.52,-0.19,-0.31,-0.19
-0.335,-0.19,-0.395,-0.32,-0.39,-0.275,-0.46,-0.315,-0.555,-0.195,-0.305,-0.19
-0.34,-0.18,-0.38,-0.305,-0.39,-0.275,-0.455,-0.325,-0.585,-0.155,-0.31,-0.175
-0.33,-0.185,-0.37,-0.295,-0.395,-0.26,-0.435,-0.325,-0.53,-0.065,-0.32,-0.195
-0.34,-0.2,-0.38,-0.3,-0.38,-0.25,-0.44,-0.305,-0.385,0.06,-0.335,-0.2
-0.35,-0.215,-0.385,-0.3,-0.385,-0.245,-0.455,-0.295,-0.235,0.205,-0.32,-0.21
-0.355,-0.205,-0.395,-0.32,-0.39,-0.25,-0.45,-0.29,-0.095,0.325,-0.305,-0.195
-0.35,-0.21,-0.39,-0.32,-0.405,-0.265,-0.46,-0.29,0.115,0.45,-0.31,-0.185
-0.345,-0.2,-0.38,-0.31,-0.4,-0.26,-0.46,-0.315,0.365,0.565,-0.31,-0.185
-0.33,-0.185,-0.38,-0.305,-0.395,-0.26,-0.45,-0.315,0.635,0.675,-0.33,-0.2
-0.32,-0.205,-0.385,-0.315,-0.39,-0.25,-0.445,-0.315,0.84,0.78,-0.34,-0.215
-0.335,-0.2,-0.39,-0.33,-0.39,-0.255,-0.44,-0.295,0.925,0.84,-0.33,-0.215
-0.33,-0.21,-0.39,-0.345,-0.39,-0.26,-0.455,-0.3,0.86,0.75,-0.31,-0.205
-0.345,-0.205,-0.4,-0.355,-0.405,-0.255,-0.465,-0.305,0.595,0.495,-0.325,-0.205
-0.33,-0.185,-0.4,-0.34,-0.375,-0.255,-0.455,-0.31,0.195,0.155,-0.335,-0.2
-0.335,-0.185,-0.405,-0.335,-0.39,-0.245,-0.445,-0.3,-0.22,-0.08,-0.34,-0.2
-0.335,-0.2,-0.415,-0.35,-0.38,-0.24,-0.44,-0.295,-0.445,-0.13,-0.345,-0.215
-0.345,-0.215,-0.42,-0.37,-0.39,-0.245,-0.435,-0.29,-0.505,-0.105,-0.335,-0.215
-0.345,-0.225,-0.43,-0.38,-0.385,-0.255,-0.445,-0.3,-0.48,-0.085,-0.325,-0.225
-0.355,-0.22,-0.43,-0.38,-0.39,-0.265,-0.455,-0.305,-0.435,-0.11,-0.325,-0.2
-0.34,-0.2,-0.425,-0.375,-0.385,-0.255,-0.44,-0.315,-0.415,-0.08,-0.34,-0.205
-0.34,-0.2,-0.42,-0.385,-0.37,-0.24,-0.425,-0.31,-0.405,-0.095,-0.34,-0.205
-0.335,-0.215,-0.43,-0.405,-0.365,-0.23,-0.43,-0.31,-0.39,-0.08,-0.345,-0.22
-0.33,-0.225,-0.445,-0.405,-0.365,-0.23,-0.43,-0.295,-0.39,-0.085,-0.365,-0.245
-0.35,-0.235,-0.465,-0.42,-0.38,-0.23,-0.445,-0.29,-0.395,-0.085,-0.385,-0.26
-0.35,-0.245,-0.455,-0.43,-0.39,-0.25,-0.45,-0.305,-0.4,-0.08,-0.42,-0.285
-0.345,-0.24,-0.44,-0.415,-0.39,-0.25,-0.43,-0.31,-0.41,-0.095,-0.445,-0.305
-0.335,-0.24,-0.425,-0.41,-0.385,-0.235,-0.435,-0.305,-0.415,-0.1,-0.47,-0.355
-0.335,-0.24,-0.435,-0.415,-0.375,-0.245,-0.425,-0.305,-0.4,-0.115,-0.51,-0.37
-0.335,-0.245,-0.45,-0.425,-0.38,-0.235,-0.43,-0.305,-0.395,-0.12,-0.535,-0.35
-0.35,-0.26,-0.44,-0.425,-0.39,-0.235,-0.435,-0.31,-0.405,-0.1,-0.495,-0.265
-0.355,-0.26,-0.445,-0.425,-0.39,-0.265,-0.45,-0.31,-0.405,-0.095,-0.395,-0.115
-0.355,-0.265,-0.425,-0.405,-0.395,-0.245,-0.45,-0.32,-0.405,-0.095,-0.275,-0.01
-0.345,-0.265,-0.425,-0.385,-0.375,-0.24,-0.45,-0.33,-0.405,-0.11,-0.15,0.095
-0.345,-0.28,-0.425,-0.39,-0.385,-0.225,-0.435,-0.32,-0.395,-0.115,0.03,0.185
-0.335,-0.285,-0.43,-0.385,-0.385,-0.245,-0.45,-0.31,-0.38,-0.105,0.28,0.27
-0.35,-0.295,-0.43,-0.385,-0.4,-0.235,-0.44,-0.325,-0.39,-0.09,0.54,0.395
-0.36,-0.295,-0.415,-0.38,-0.39,-0.25,-0.455,-0.325,-0.405,-0.095,0.75,0.505
-0.36,-0.3,-0.415,-0.35,-0.385,-0.26,-0.445,-0.34,-0.405,-0.105,0.89,0.62
-0.36,-0.29,-0.385,-0.32,-0.385,-0.25,-0.44,-0.35,-0.41,-0.11,0.97,0.7
-0.365,-0.3,-0.375,-0.315,-0.375,-0.23,-0.435,-0.345,-0.405,-0.11,1.02,0.735
-0.36,-0.315,-0.385,-0.315,-0.38,-0.24,-0.45,-0.325,-0.395,-0.1,0.995,0.705
-0.37,-0.315,-0.37,-0.305,-0.395,-0.24,-0.455,-0.335,-0.395,-0.095,0.87,0.61
-0.385,-0.315,-0.36,-0.305,-0.405,-0.25,-0.455,-0.335,-0.405,-0.1,0.665,0.415
-0.37,-0.315,-0.35,-0.27,-0.385,-0.26,-0.44,-0.355,-0.41,-0.095,0.385,0.135
-0.36,-0.31,-0.335,-0.25,-0.38,-0.255,-0.44,-0.35,-0.405,-0.12,0.09,-0.155
-0.355,-0.31,-0.335,-0.235,-0.375,-0.25,-0.42,-0.36,-0.405,-0.11,-0.18,-0.325
-0.36,-0.325,-0.325,-0.235,-0.38,-0.265,-0.42,-0.35,-0.39,-0.105,-0.37,-0.375
-0.375,-0.33,-0.32,-0.245,-0.38,-0.26,-0.43,-0.365,-0.4,-0.085,-0.465,-0.325
-0.375,-0.325,-0.325,-0.24,-0.39,-0.28,-0.445,-0.36,-0.405,-0.095,-0.475,-0.27
-0.365,-0.315,-0.305,-0.235,-0.39,-0.28,-0.445,-0.37,-0.42,-0.09,-0.455,-0.245
-0.365,-0.305,-0.295,-0.215,-0.38,-0.27,-0.425,-0.385,-0.425,-0.1,-0.44,-0.25
-0.36,-0.305,-0.3,-0.22,-0.355,-0.27,-0.425,-0.385,-0.405,-0.105,-0.395,-0.25
-0.36,-0.29,-0.29,-0.22,-0.355,-0.275,-0.42,-0.375,-0.4,-0.1,-0.37,-0.25
-0.365,-0.29,-0.295,-0.225,-0.37,-0.285,-0.42,-0.39,-0.395,-0.095,-0.36,-0.25
-0.37,-0.275,-0.29,-0.22,-0.385,-0.305,-0.44,-0.4,-0.395,-0.09,-0.35,-0.25
-0.355,-0.27,-0.29,-0.215,-0.375,-0.3,-0.435,-0.42,-0.4,-0.09,-0.355,-0.235
-0.33,-0.245,-0.285,-0.205,-0.385,-0.305,-0.43,-0.43,-0.4,-0.105,-0.355,-0.245
-0.325,-0.24,-0.285,-0.215,-0.375,-0.29,-0.425,-0.42,-0.4,-0.1,-0.36,-0.25
-0.325,-0.25,-0.285,-0.215,-0.39,-0.305,-0.435,-0.425,-0.385,-0.09,-0.355,-0.25
-0.335,-0.25,-0.29,-0.225,-0.39,-0.32,-0.445,-0.425,-0.39,-0.085,-0.355,-0.245
-0.34,-0.235,-0.29,-0.225,-0.4,-0.34,-0.46,-0.43,-0.395,-0.095,-0.35,-0.24
-0.315,-0.22,-0.285,-0.215,-0.4,-0.35,-0.455,-0.45,-0.395,-0.095,-0.35,-0.245
-0.3,-0.195,-0.27,-0.19,-0.385,-0.335,-0.445,-0.46,-0.4,-0.11,-0.365,-0.235
-0.3,-0.19,-0.27,-0.195,-0.39,-0.33,-0.435,-0.455,-0.385,-0.11,-0.365,-0.245
-0.29,-0.19,-0.28,-0.21,-0.39,-0.345,-0.435,-0.455,-0.385,-0.11,-0.36,-0.255
-0.295,-0.19,-0.29,-0.205,-0.405,-0.365,-0.45,-0.465,-0.395,-0.09,-0.355,-0.24
-0.29,-0.18,-0.285,-0.205,-0.415,-0.38,-0.455,-0.47,-0.395,-0.09,-0.355,-0.225
-0.285,-0.16,-0.275,-0.2,-0.405,-0.385,-0.455,-0.475,-0.4,-0.09,-0.37,-0.245
-0.275,-0.145,-0.275,-0.205,-0.405,-0.385,-0.445,-0.47,-0.4,-0.1,-0.375,-0.235
-0.255,-0.15,-0.275,-0.205,-0.405,-0.37,-0.435,-0.47,-0.395,-0.115,-0.38,-0.245
-0.25,-0.16,-0.29,-0.205,-0.41,-0.385,-0.45,-0.455,-0.39,-0.12,-0.37,-0.26
-0.25,-0.16,-0.305,-0.215,-0.425,-0.4,-0.455,-0.455,-0.395,-0.11,-0.37,-0.245
-0.265,-0.155,-0.305,-0.21,-0.43,-0.4,-0.445,-0.465,-0.4,-0.105,-0.36,-0.24
-0.255,-0.145,-0.3,-0.21,-0.42,-0.42,-0.455,-0.47,-0.41,-0.105,-0.365,-0.225
-0.245,-0.14,-0.28,-0.2,-0.405,-0.4,-0.44,-0.465,-0.41,-0.11,-0.385,-0.23
-0.23,-0.16,-0.29,-0.2,-0.41,-0.39,-0.43,-0.435,-0.405,-0.125,-0.39,-0.245
-0.245,-0.15,-0.305,-0.205,-0.41,-0.395,-0.415,-0.42,-0.39,-0.125,-0.365,-0.245
-0.245,-0.175,-0.315,-0.22,-0.41,-0.39,-0.425,-0.4,-0.385,-0.12,-0.36,-0.235
-0.255,-0.17,-0.31,-0.21,-0.41,-0.395,-0.43,-0.39,-0.395,-0.12,-0.36,-0.22
-0.255,-0.16,-0.295,-0.2,-0.4,-0.375,-0.41,-0.395,-0.405,-0.12,-0.355,-0.23
-0.24,-0.16,-0.29,-0.2,-0.385,-0.355,-0.395,-0.38,-0.41,-0.135,-0.365,-0.23
-0.25,-0.15,-0.3,-0.195,-0.37,-0.33,-0.38,-0.355,-0.4,-0.145,-0.375,-0.23
-0.255,-0.155,-0.305,-0.215,-0.375,-0.325,-0.365,-0.345,-0.38,-0.145,-0.365,-0.235
-0.245,-0.16,-0.305,-0.215,-0.36,-0.32,-0.365,-0.325,-0.385,-0.14,-0.36,-0.225
-0.255,-0.17,-0.31,-0.22,-0.365,-0.305,-0.37,-0.31,-0.39,-0.135,-0.36,-0.22
-0.25,-0.155,-0.3,-0.21,-0.355,-0.28,-0.37,-0.31,-0.395,-0.145,-0.36,-0.22
-0.25,-0.155,-0.295,-0.21,-0.335,-0.265,-0.35,-0.31,-0.395,-0.16,-0.37,-0.22
-0.265,-0.15,-0.305,-0.21,-0.315,-0.245,-0.34,-0.285,-0.385,-0.175,-0.37,-0.235
-0.26,-0.165,-0.305,-0.215,-0.315,-0.235,-0.335,-0.28,-0.385,-0.165,-0.36,-0.24
-0.26,-0.175,-0.315,-0.225,-0.31,-0.23,-0.345,-0.275,-0.39,-0.16,-0.35,-0.22
-0.265,-0.165,-0.31,-0.23,-0.315,-0.235,-0.355,-0.28,-0.4,-0.16,-0.355,-0.21
-0.27,-0.165,-0.31,-0.215,-0.295,-0.22,-0.345,-0.285,-0.395,-0.18,-0.36,-0.205
-0.265,-0.16,-0.295,-0.215,-0.29,-0.205,-0.34,-0.28,-0.4,-0.2,-0.365,-0.22
-0.26,-0.16,-0.3,-0.215,-0.27,-0.19,-0.33,-0.255,-0.39,-0.2,-0.38,-0.23
-0.275,-0.18,-0.305,-0.22,-0.285,-0.18,-0.34,-0.245,-0.385,-0.21,-0.36,-0.245
-0.28,-0.175,-0.31,-0.23,-0.29,-0.19,-0.335,-0.24,-0.395,-0.21,-0.35,-0.24
-0.29,-0.185,-0.305,-0.22,-0.29,-0.195,-0.355,-0.26,-0.405,-0.2,-0.36,-0.23
-0.275,-0.165,-0.305,-0.205,-0.28,-0.19,-0.34,-0.27,-0.405,-0.21,-0.35,-0.22
-0.27,-0.15,-0.295,-0.2,-0.275,-0.185,-0.335,-0.27,-0.42,-0.22,-0.38,-0.24
-0.26,-0.15,-0.3,-0.22,-0.255,-0.17,-0.32,-0.25,-0.41,-0.235,-0.385,-0.25
-0.28,-0.17,-0.315,-0.225,-0.27,-0.17,-0.325,-0.245,-0.395,-0.23,-0.37,-0.26
-0.28,-0.185,-0.325,-0.24,-0.275,-0.185,-0.335,-0.255,-0.405,-0.23,-0.355,-0.245
-0.285,-0.195,-0.32,-0.23,-0.275,-0.185,-0.355,-0.26,-0.41,-0.235,-0.355,-0.24
-0.275,-0.19,-0.32,-0.23,-0.28,-0.185,-0.33,-0.26,-0.425,-0.24,-0.355,-0.24
-0.275,-0.19,-0.315,-0.215,-0.255,-0.18,-0.325,-0.265,-0.42,-0.25,-0.375,-0.235
-0.265,-0.185,-0.31,-0.225,-0.245,-0.17,-0.325,-0.245,-0.425,-0.275,-0.37,-0.255
-0.27,-0.19,-0.325,-0.22,-0.26,-0.18,-0.325,-0.24,-0.4,-0.265,-0.345,-0.26
-0.285,-0.21,-0.335,-0.235,-0.255,-0.18,-0.325,-0.245,-0.405,-0.24,-0.345,-0.25
-0.29,-0.195,-0.33,-0.225,-0.265,-0.19,-0.35,-0.245,-0.405,-0.24,-0.35,-0.255
-0.28,-0.19,-0.32,-0.225,-0.26,-0.185,-0.335,-0.26,-0.395,-0.24,-0.355,-0.25
-0.275,-0.18,-0.32,-0.21,-0.26,-0.18,-0.325,-0.255,-0.405,-0.26,-0.365,-0.25
-0.285,-0.205,-0.31,-0.225,-0.24,-0.16,-0.32,-0.245,-0.395,-0.26,-0.355,-0.275
-0.28,-0.215,-0.33,-0.225,-0.25,-0.16,-0.325,-0.245,-0.385,-0.25,-0.34,-0.275
-0.3,-0.225,-0.33,-0.225,-0.26,-0.175,-0.335,-0.24,-0.395,-0.23,-0.33,-0.27
-0.3,-0.21,-0.325,-0.23,-0.275,-0.185,-0.335,-0.25,-0.4,-0.21,-0.34,-0.265
-0.305,-0.205,-0.31,-0.22,-0.265,-0.195,-0.34,-0.255,-0.395,-0.195,-0.355,-0.275
-0.295,-0.195,-0.305,-0.21,-0.26,-0.19,-0.325,-0.26,-0.395,-0.205,-0.365,-0.28
-0.3,-0.2,-0.305,-0.22,-0.26,-0.175,-0.325,-0.255,-0.38,-0.195,-0.36,-0.295
-0.31,-0.195,-0.32,-0.215,-0.285,-0.18,-0.33,-0.245,-0.365,-0.18,-0.335,-0.32
-0.31,-0.21,-0.33,-0.23,-0.285,-0.2,-0.335,-0.255,-0.375,-0.165,-0.34,-0.315
-0.305,-0.215,-0.325,-0.235,-0.28,-0.195,-0.345,-0.265,-0.37,-0.15,-0.35,-0.305
-0.295,-0.205,-0.3,-0.215,-0.285,-0.195,-0.355,-0.265,-0.37,-0.14,-0.365,-0.305
-0.285,-0.185,-0.31,-0.21,-0.285,-0.18,-0.34,-0.275,-0.375,-0.135,-0.37,-0.32
-0.285,-0.195,-0.305,-0.215,-0.265,-0.18,-0.345,-0.26,-0.355,-0.13,-0.37,-0.34
-0.29,-0.195,-0.315,-0.225,-0.28,-0.18,-0.34,-0.255,-0.33,-0.11,-0.37,-0.355
-0.295,-0.22,-0.33,-0.225,-0.275,-0.185,-0.355,-0.265,-0.335,-0.1,-0.365,-0.35
-0.31,-0.22,-0.33,-0.235,-0.295,-0.22,-0.36,-0.265,-0.345,-0.085,-0.36,-0.34
-0.29,-0.21,-0.33,-0.23,-0.295,-0.2,-0.365,-0.28,-0.35,-0.08,-0.355,-0.345
-0.295,-0.215,-0.32,-0.215,-0.28,-0.2,-0.36,-0.28,-0.335,-0.085,-0.375,-0.34
-0.3,-0.22,-0.325,-0.225,-0.275,-0.19,-0.355,-0.275,-0.32,-0.085,-0.38,-0.35
-0.305,-0.22,-0.325,-0.22,-0.28,-0.19,-0.355,-0.275,-0.305,-0.07,-0.37,-0.365
-0.31,-0.225,-0.335,-0.23,-0.285,-0.2,-0.365,-0.275,-0.31,-0.065,-0.36,-0.36
-0.325,-0.21,-0.325,-0.225,-0.31,-0.22,-0.37,-0.275,-0.315,-0.05,-0.365,-0.35
-0.31,-0.2,-0.315,-0.22,-0.305,-0.215,-0.365,-0.285,-0.32,-0.045,-0.38,-0.35
-0.3,-0.21,-0.31,-0.21,-0.28,-0.205,-0.365,-0.3,-0.32,-0.06,-0.385,-0.36
-0.29,-0.225,-0.315,-0.215,-0.29,-0.19,-0.355,-0.285,-0.31,-0.06,-0.385,-0.375
-0.31,-0.23,-0.32,-0.22,-0.285,-0.2,-0.355,-0.27,-0.305,-0.045,-0.39,-0.38
-0.325,-0.225,-0.325,-0.22,-0.29,-0.205,-0.36,-0.27,-0.31,-0.05,-0.38,-0.385
-0.33,-0.22,-0.315,-0.225,-0.3,-0.215,-0.37,-0.28,-0.295,-0.06,-0.385,-0.38
-0.315,-0.23,-0.31,-0.21,-0.31,-0.22,-0.37,-0.29,-0.305,-0.055,-0.39,-0.36
-0.3,-0.21,-0.305,-0.205,-0.295,-0.21,-0.37,-0.295,-0.3,-0.045,-0.405,-0.355
-0.305,-0.215,-0.31,-0.215,-0.295,-0.2,-0.36,-0.3,-0.29,-0.06,-0.395,-0.37
-0.31,-0.215,-0.315,-0.225,-0.29,-0.21,-0.365,-0.29,-0.285,-0.045,-0.38,-0.37
-0.32,-0.23,-0.32,-0.23,-0.315,-0.21,-0.365,-0.295,-0.29,-0.04,-0.36,-0.365
-0.33,-0.215,-0.315,-0.24,-0.31,-0.215,-0.385,-0.3,-0.295,-0.035,-0.35,-0.345
-0.325,-0.22,-0.31,-0.225,-0.31,-0.225,-0.385,-0.31,-0.3,-0.045,-0.36,-0.335
-0.315,-0.205,-0.295,-0.205,-0.315,-0.225,-0.385,-0.31,-0.305,-0.055,-0.36,-0.33
-0.31,-0.205,-0.295,-0.215,-0.305,-0.21,-0.375,-0.3,-0.31,-0.055,-0.36,-0.315
-0.305,-0.21,-0.305,-0.215,-0.31,-0.21,-0.38,-0.29,-0.31,-0.05,-0.34,-0.31
-0.305,-0.215,-0.31,-0.22,-0.32,-0.22,-0.39,-0.295,-0.305,-0.045,-0.325,-0.285
-0.31,-0.225,-0.3,-0.23,-0.325,-0.22,-0.4,-0.31,-0.3,-0.04,-0.32,-0.27
-0.3,-0.215,-0.28,-0.225,-0.31,-0.225,-0.4,-0.31,-0.315,-0.04,-0.31,-0.26
-0.305,-0.215,-0.275,-0.215,-0.305,-0.22,-0.385,-0.315,-0.33,-0.07,-0.32,-0.255
-0.29,-0.215,-0.265,-0.225,-0.31,-0.205,-0.385,-0.31,-0.32,-0.075,-0.335,-0.265
-0.3,-0.225,-0.275,-0.22,-0.305,-0.21,-0.385,-0.28,-0.305,-0.06,-0.315,-0.26
-0.3,-0.225,-0.275,-0.22,-0.315,-0.22,-0.39,-0.295,-0.31,-0.045,-0.305,-0.24
-0.305,-0.225,-0.26,-0.225,-0.315,-0.24,-0.4,-0.29,-0.32,-0.05,-0.315,-0.225
-0.305,-0.205,-0.24,-0.195,-0.305,-0.24,-0.405,-0.3,-0.315,-0.05,-0.305,-0.225
-0.29,-0.195,-0.24,-0.195,-0.305,-0.2,-0.39,-0.3,-0.34,-0.07,-0.315,-0.22
-0.28,-0.21,-0.235,-0.205,-0.3,-0.195,-0.38,-0.3,-0.32,-0.08,-0.31,-0.23
-0.295,-0.21,-0.24,-0.2,-0.3,-0.2,-0.38,-0.29,-0.315,-0.08,-0.28,-0.23
-0.305,-0.215,-0.235,-0.2,-0.315,-0.205,-0.39,-0.295,-0.325,-0.07,-0.29,-0.235
-0.315,-0.235,-0.225,-0.195,-0.32,-0.21,-0.405,-0.295,-0.33,-0.06,-0.285,-0.21
-0.305,-0.23,-0.215,-0.19,-0.305,-0.22,-0.395,-0.305,-0.33,-0.055,-0.295,-0.2
-0.295,-0.22,-0.205,-0.17,-0.295,-0.21,-0.39,-0.305,-0.335,-0.07,-0.3,-0.215
-0.29,-0.22,-0.205,-0.17,-0.3,-0.185,-0.385,-0.295,-0.315,-0.075,-0.285,-0.215
-0.28,-0.23,-0.21,-0.18,-0.305,-0.2,-0.38,-0.285,-0.315,-0.075,-0.285,-0.23
-0.27,-0.225,-0.215,-0.18,-0.3,-0.2,-0.38,-0.29,-0.31,-0.06,-0.29,-0.23
-0.275,-0.23,-0.22,-0.185,-0.32,-0.22,-0.39,-0.3,-0.32,-0.07,-0.29,-0.225
-0.275,-0.215,-0.22,-0.17,-0.31,-0.21,-0.375,-0.3,-0.32,-0.07,-0.295,-0.22
-0.27,-0.195,-0.215,-0.165,-0.305,-0.21,-0.365,-0.3,-0.32,-0.085,-0.3,-0.215
-0.25,-0.195,-0.22,-0.18,-0.295,-0.2,-0.365,-0.29,-0.33,-0.085,-0.315,-0.22
-0.25,-0.19,-0.22,-0.175,-0.3,-0.195,-0.375,-0.285,-0.32,-0.075,-0.3,-0.245
-0.255,-0.2,-0.23,-0.185,-0.31,-0.205,-0.375,-0.285,-0.32,-0.06,-0.29,-0.22
-0.225,-0.195,-0.23,-0.175,-0.325,-0.19,-0.385,-0.29,-0.33,-0.06,-0.28,-0.225
-0.22,-0.18,-0.24,-0.17,-0.315,-0.215,-0.385,-0.305,-0.34,-0.065,-0.295,-0.23
-0.205,-0.17,-0.21,-0.15,-0.315,-0.2,-0.385,-0.3,-0.33,-0.08,-0.305,-0.23
-0.2,-0.18,-0.22,-0.15,-0.3,-0.19,-0.365,-0.3,-0.335,-0.09,-0.3,-0.235
-0.205,-0.175,-0.23,-0.155,-0.3,-0.2,-0.375,-0.28,-0.335,-0.08,-0.3,-0.24
-0.215,-0.195,-0.255,-0.18,-0.31,-0.21,-0.38,-0.285,-0.33,-0.075,-0.29,-0.235
-0.23,-0.195,-0.235,-0.18,-0.32,-0.21,-0.39,-0.29,-0.34,-0.085,-0.3,-0.215
-0.22,-0.17,-0.21,-0.17,-0.315,-0.205,-0.385,-0.29,-0.345,-0.075,-0.31,-0.225
-0.225,-0.175,-0.19,-0.175,-0.305,-0.195,-0.375,-0.29,-0.35,-0.095,-0.315,-0.23
-0.225,-0.175,-0.205,-0.18,-0.3,-0.175,-0.36,-0.285,-0.345,-0.08,-0.32,-0.24
-0.225,-0.18,-0.225,-0.19,-0.3,-0.185,-0.37,-0.275,-0.33,-0.075,-0.31,-0.245
-0.23,-0.185,-0.26,-0.195,-0.3,-0.21,-0.38,-0.285,-0.335,-0.065,-0.32,-0.245
-0.235,-0.185,-0.275,-0.2,-0.3,-0.21,-0.39,-0.29,-0.345,-0.065,-0.315,-0.245
-0.24,-0.175,-0.28,-0.19,-0.285,-0.215,-0.39,-0.305,-0.35,-0.075,-0.325,-0.235
-0.235,-0.175,-0.285,-0.185,-0.26,-0.21,-0.375,-0.3,-0.35,-0.09,-0.33,-0.245
-0.22,-0.175,-0.305,-0.2,-0.245,-0.195,-0.365,-0.295,-0.35,-0.085,-0.335,-0.245
-0.21,-0.19,-0.32,-0.195,-0.24,-0.2,-0.375,-0.275,-0.335,-0.07,-0.33,-0.25
-0.205,-0.205,-0.315,-0.215,-0.245,-0.205,-0.36,-0.285,-0.34,-0.07,-0.325,-0.245
-0.245,-0.2,-0.335,-0.21,-0.25,-0.21,-0.37,-0.295,-0.34,-0.07,-0.31,-0.245
-0.285,-0.205,-0.325,-0.2,-0.24,-0.205,-0.355,-0.31,-0.36,-0.07,-0.32,-0.245
-0.285,-0.205,-0.335,-0.195,-0.245,-0.195,-0.32,-0.305,-0.355,-0.085,-0.33,-0.25
-0.3,-0.215,-0.32,-0.205,-0.23,-0.18,-0.31,-0.31,-0.36,-0.09,-0.34,-0.265
-0.31,-0.215,-0.325,-0.22,-0.22,-0.18,-0.3,-0.285,-0.345,-0.085,-0.345,-0.265
-0.33,-0.225,-0.32,-0.215,-0.23,-0.185,-0.3,-0.295,-0.34,-0.075,-0.335,-0.265
-0.33,-0.215,-0.325,-0.225,-0.235,-0.195,-0.31,-0.28,-0.35,-0.08,-0.33,-0.245
-0.325,-0.21,-0.325,-0.225,-0.23,-0.195,-0.31,-0.29,-0.355,-0.07,-0.335,-0.235
-0.315,-0.2,-0.31,-0.21,-0.205,-0.165,-0.285,-0.295,-0.35,-0.075,-0.345,-0.245
-0.32,-0.215,-0.305,-0.205,-0.2,-0.155,-0.27,-0.285,-0.345,-0.085,-0.335,-0.26
-0.315,-0.225,-0.32,-0.21,-0.195,-0.14,-0.255,-0.27,-0.335,-0.09,-0.33,-0.265
-0.325,-0.245,-0.32,-0.225,-0.21,-0.17,-0.275,-0.265,-0.33,-0.065,-0.325,-0.26
-0.34,-0.245,-0.33,-0.23,-0.215,-0.175,-0.275,-0.26,-0.345,-0.065,-0.325,-0.255
-0.345,-0.25,-0.32,-0.215,-0.205,-0.165,-0.27,-0.27,-0.35,-0.07,-0.335,-0.245
-0.34,-0.225,-0.32,-0.2,-0.205,-0.165,-0.275,-0.265,-0.355,-0.075,-0.335,-0.25
-0.34,-0.23,-0.33,-0.215,-0.205,-0.15,-0.27,-0.255,-0.35,-0.08,-0.335,-0.255
-0.35,-0.235,-0.33,-0.22,-0.21,-0.14,-0.28,-0.245,-0.335,-0.075,-0.34,-0.27
-0.345,-0.24,-0.36,-0.225,-0.225,-0.13,-0.295,-0.25,-0.335,-0.065,-0.33,-0.265
-0.355,-0.235,-0.355,-0.21,-0.23,-0.14,-0.31,-0.245,-0.335,-0.06,-0.335,-0.25
-0.33,-0.235,-0.33,-0.21,-0.225,-0.155,-0.305,-0.245,-0.345,-0.065,-0.345,-0.265
-0.335,-0.22,-0.325,-0.2,-0.22,-0.145,-0.295,-0.24,-0.355,-0.075,-0.35,-0.265
-0.33,-0.23,-0.325,-0.21,-0.22,-0.135,-0.285,-0.23,-0.355,-0.085,-0.36,-0.27
-0.32,-0.24,-0.335,-0.215,-0.215,-0.145,-0.285,-0.21,-0.35,-0.075,-0.355,-0.28
-0.345,-0.24,-0.35,-0.225,-0.2,-0.14,-0.295,-0.225,-0.335,-0.055,-0.345,-0.265
-0.355,-0.245,-0.34,-0.235,-0.19,-0.16,-0.315,-0.225,-0.34,-0.065,-0.335,-0.25
-0.34,-0.225,-0.345,-0.24,-0.19,-0.16,-0.315,-0.24,-0.35,-0.065,-0.34,-0.255
-0.33,-0.225,-0.355,-0.255,-0.205,-0.175,-0.31,-0.245,-0.36,-0.07,-0.355,-0.27
-0.325,-0.235,-0.385,-0.29,-0.225,-0.16,-0.3,-0.235,-0.345,-0.08,-0.355,-0.27
-0.33,-0.25,-0.425,-0.31,-0.25,-0.165,-0.29,-0.22,-0.325,-0.08,-0.345,-0.275
-0.35,-0.27,-0.45,-0.335,-0.27,-0.175,-0.295,-0.225,-0.335,-0.065,-0.335,-0.265
-0.365,-0.28,-0.47,-0.36,-0.3,-0.185,-0.285,-0.23,-0.345,-0.055,-0.34,-0.245
-0.36,-0.29,-0.485,-0.35,-0.305,-0.195,-0.265,-0.245,-0.35,-0.065,-0.35,-0.245
-0.38,-0.3,-0.51,-0.285,-0.32,-0.175,-0.265,-0.255,-0.34,-0.065,-0.355,-0.265
-0.425,-0.33,-0.515,-0.175,-0.32,-0.18,-0.29,-0.26,-0.325,-0.08,-0.355,-0.28
-0.445,-0.36,-0.455,-0.05,-0.325,-0.185,-0.305,-0.245,-0.305,-0.075,-0.355,-0.275
-0.475,-0.355,-0.325,0.075,-0.335,-0.2,-0.325,-0.25,-0.29,-0.06,-0.345,-0.285
-0.51,-0.305,-0.165,0.19,-0.34,-0.21,-0.355,-0.255,-0.265,-0.06,-0.345,-0.27
-0.535,-0.205,0.01,0.315,-0.335,-0.205,-0.365,-0.27,-0.255,-0.06,-0.35,-0.27
-0.505,-0.08,0.25,0.43,-0.345,-0.21,-0.375,-0.28,-0.275,-0.07,-0.355,-0.26
-0.415,0.015,0.515,0.545,-0.33,-0.18,-0.38,-0.27,-0.26,-0.065,-0.355,-0.28
-0.3,0.065,0.74,0.655,-0.33,-0.19,-0.385,-0.265,-0.25,-0.065,-0.345,-0.28
-0.16,0.115,0.885,0.655,-0.345,-0.205,-0.385,-0.275,-0.265,-0.05,-0.35,-0.28
-0.015,0.19,0.935,0.505,-0.345,-0.215,-0.405,-0.275,-0.265,-0.055,-0.335,-0.26
0.235,0.3,0.835,0.21,-0.35,-0.21,-0.4,-0.28,-0.255,-0.055,-0.335,-0.265
0.49,0.41,0.525,-0.09,-0.335,-0.215,-0.385,-0.3,-0.25,-0.055,-0.355,-0.26
0.72,0.495,0.12,-0.275,-0.335,-0.19,-0.385,-0.29,-0.25,-0.06,-0.355,-0.28
0.875,0.485,-0.23,-0.29,-0.335,-0.185,-0.395,-0.28,-0.225,-0.05,-0.35,-0.275
0.94,0.36,-0.425,-0.265,-0.34,-0.2,-0.4,-0.275,-0.225,-0.035,-0.35,-0.275
0.905,0.105,-0.455,-0.25,-0.345,-0.205,-0.42,-0.27,-0.24,-0.015,-0.34,-0.255
0.755,-0.165,-0.42,-0.255,-0.34,-0.21,-0.41,-0.295,-0.25,-0.025,-0.355,-0.26
0.49,-0.35,-0.38,-0.23,-0.32,-0.2,-0.405,-0.295,-0.25,-0.03,-0.375,-0.27
0.165,-0.45,-0.36,-0.23,-0.325,-0.2,-0.4,-0.29,-0.25,-0.04,-0.365,-0.27
-0.11,-0.47,-0.365,-0.25,-0.325,-0.2,-0.405,-0.275,-0.245,-0.035,-0.355,-0.29
-0.27,-0.45,-0.375,-0.255,-0.335,-0.225,-0.41,-0.285,-0.245,-0.005,-0.345,-0.275
-0.39,-0.395,-0.38,-0.255,-0.345,-0.23,-0.425,-0.285,-0.25,0,-0.36,-0.255
-0.45,-0.345,-0.355,-0.25,-0.35,-0.255,-0.42,-0.29,-0.245,-0.005,-0.35,-0.255
-0.475,-0.31,-0.355,-0.235,-0.395,-0.275,-0.42,-0.295,-0.255,-0.015,-0.355,-0.255
-0.455,-0.295,-0.37,-0.25,-0.43,-0.3,-0.4,-0.29,-0.25,-0.025,-0.345,-0.26
-0.425,-0.285,-0.375,-0.25,-0.46,-0.34,-0.405,-0.28,-0.245,-0.035,-0.335,-0.28
-0.39,-0.295,-0.385,-0.265,-0.505,-0.37,-0.415,-0.285,-0.265,-0.015,-0.315,-0.285
-0.39,-0.295,-0.38,-0.255,-0.545,-0.375,-0.43,-0.295,-0.265,-0.005,-0.295,-0.275
-0.385,-0.28,-0.365,-0.25,-0.575,-0.3,-0.43,-0.3,-0.275,-0.01,-0.295,-0.265
-0.39,-0.285,-0.37,-0.24,-0.56,-0.16,-0.435,-0.32,-0.275,-0.03,-0.305,-0.275
-0.38,-0.285,-0.37,-0.245,-0.455,-0.02,-0.455,-0.33,-0.245,-0.025,-0.305,-0.28
-0.38,-0.285,-0.365,-0.255,-0.33,0.085,-0.495,-0.355,-0.21,-0.025,-0.29,-0.29
-0.38,-0.29,-0.38,-0.255,-0.235,0.16,-0.54,-0.365,-0.205,-0.02,-0.28,-0.265
-0.395,-0.275,-0.37,-0.265,-0.13,0.2,-0.56,-0.41,-0.235,-0.015,-0.265,-0.255
-0.385,-0.275,-0.375,-0.24,0,0.26,-0.59,-0.45,-0.275,-0.03,-0.265,-0.255
-0.385,-0.275,-0.365,-0.24,0.16,0.34,-0.63,-0.465,-0.3,-0.045,-0.265,-0.245
-0.385,-0.27,-0.37,-0.255,0.35,0.435,-0.63,-0.405,-0.29,-0.045,-0.265,-0.24
-0.375,-0.285,-0.38,-0.255,0.545,0.5,-0.565,-0.3,-0.3,-0.045,-0.24,-0.255
-0.395,-0.295,-0.375,-0.265,0.7,0.57,-0.445,-0.18,-0.33,-0.04,-0.23,-0.26
-0.41,-0.29,-0.365,-0.26,0.815,0.655,-0.325,-0.055,-0.345,-0.04,-0.235,-0.225
-0.41,-0.275,-0.36,-0.25,0.93,0.755,-0.19,0.03,-0.35,-0.045,-0.25,-0.23
-0.4,-0.265,-0.36,-0.255,1.035,0.79,0,0.135,-0.365,-0.055,-0.25,-0.225
-0.395,-0.265,-0.355,-0.255,1.05,0.645,0.245,0.245,-0.355,-0.065,-0.255,-0.25
-0.39,-0.275,-0.355,-0.255,0.92,0.32,0.52,0.36,-0.34,-0.055,-0.255,-0.255
-0.405,-0.295,-0.37,-0.255,0.57,-0.065,0.72,0.475,-0.35,-0.06,-0.26,-0.255
-0.395,-0.29,-0.365,-0.25,0.115,-0.255,0.835,0.56,-0.36,-0.065,-0.265,-0.25
-0.385,-0.285,-0.355,-0.245,-0.245,-0.26,0.855,0.57,-0.375,-0.07,-0.27,-0.245
-0.375,-0.27,-0.35,-0.225,-0.42,-0.23,0.74,0.44,-0.37,-0.085,-0.27,-0.23
-0.39,-0.265,-0.35,-0.23,-0.425,-0.22,0.49,0.18,-0.37,-0.075,-0.265,-0.22
-0.39,-0.275,-0.35,-0.245,-0.39,-0.23,0.125,-0.105,-0.36,-0.08,-0.26,-0.23
-0.405,-0.28,-0.36,-0.255,-0.355,-0.225,-0.19,-0.33,-0.365,-0.085,-0.275,-0.22
-0.41,-0.28,-0.36,-0.26,-0.36,-0.24,-0.425,-0.435,-0.375,-0.07,-0.27,-0.21
-0.41,-0.27,-0.36,-0.245,-0.365,-0.255,-0.535,-0.45,-0.38,-0.075,-0.26,-0.225
-0.39,-0.265,-0.35,-0.245,-0.355,-0.25,-0.585,-0.415,-0.385,-0.065,-0.25,-0.235
-0.39,-0.27,-0.355,-0.245,-0.35,-0.245,-0.585,-0.37,-0.36,-0.08,-0.26,-0.25
-0.395,-0.27,-0.365,-0.24,-0.36,-0.245,-0.55,-0.365,-0.36,-0.075,-0.275,-0.255
-0.405,-0.28,-0.37,-0.25,-0.365,-0.27,-0.505,-0.355,-0.36,-0.075,-0.29,-0.26
-0.415,-0.27,-0.36,-0.245,-0.39,-0.26,-0.48,-0.34,-0.36,-0.06,-0.295,-0.235
-0.4,-0.265,-0.35,-0.245,-0.385,-0.27,-0.46,-0.33,-0.38,-0.07,-0.32,-0.25
-0.41,-0.265,-0.355,-0.24,-0.375,-0.25,-0.45,-0.34,-0.39,-0.09,-0.34,-0.255
-0.405,-0.265,-0.35,-0.24,-0.37,-0.25,-0.44,-0.34,-0.395,-0.1,-0.37,-0.27
-0.41,-0.27,-0.355,-0.25,-0.37,-0.255,-0.44,-0.335,-0.375,-0.105,-0.36,-0.29
-0.415,-0.285,-0.37,-0.265,-0.38,-0.26,-0.435,-0.335,-0.405,-0.12,-0.37,-0.285
-0.41,-0.285,-0.375,-0.255,-0.395,-0.27,-0.45,-0.335,-0.45,-0.14,-0.385,-0.28
-0.4,-0.265,-0.36,-0.24,-0.385,-0.27,-0.45,-0.34,-0.49,-0.16,-0.39,-0.28
-0.4,-0.265,-0.35,-0.24,-0.375,-0.25,-0.45,-0.355,-0.52,-0.2,-0.4,-0.28
-0.395,-0.255,-0.345,-0.24,-0.365,-0.26,-0.445,-0.335,-0.545,-0.235,-0.385,-0.29
-0.39,-0.275,-0.35,-0.255,-0.37,-0.255,-0.435,-0.315,-0.57,-0.25,-0.385,-0.29
-0.405,-0.275,-0.37,-0.26,-0.385,-0.255,-0.45,-0.325,-0.6,-0.215,-0.38,-0.285
-0.41,-0.28,-0.37,-0.26,-0.4,-0.275,-0.455,-0.335,-0.565,-0.135,-0.37,-0.275
-0.39,-0.27,-0.355,-0.255,-0.385,-0.275,-0.46,-0.345,-0.48,-0.015,-0.38,-0.275
-0.39,-0.265,-0.35,-0.255,-0.385,-0.275,-0.465,-0.35,-0.335,0.09,-0.385,-0.28
-0.385,-0.275,-0.345,-0.25,-0.37,-0.245,-0.435,-0.34,-0.17,0.175,-0.38,-0.29
-0.385,-0.285,-0.36,-0.26,-0.375,-0.245,-0.445,-0.335,0.04,0.29,-0.375,-0.295
-0.41,-0.28,-0.37,-0.275,-0.385,-0.25,-0.45,-0.32,0.315,0.39,-0.375,-0.3
-0.405,-0.28,-0.365,-0.28,-0.395,-0.265,-0.45,-0.33,0.57,0.51,-0.38,-0.295
-0.395,-0.275,-0.36,-0.28,-0.39,-0.27,-0.46,-0.34,0.73,0.615,-0.395,-0.29
-0.39,-0.275,-0.35,-0.27,-0.37,-0.26,-0.455,-0.34,0.77,0.635,-0.4,-0.295
-0.375,-0.275,-0.355,-0.265,-0.36,-0.255,-0.445,-0.325,0.655,0.485,-0.395,-0.305
-0.39,-0.285,-0.365,-0.285,-0.36,-0.26,-0.445,-0.33,0.38,0.19,-0.38,-0.29
-0.395,-0.295,-0.365,-0.29,-0.365,-0.27,-0.465,-0.33,0,-0.085,-0.37,-0.305
-0.41,-0.295,-0.37,-0.28,-0.37,-0.27,-0.47,-0.335,-0.31,-0.195,-0.37,-0.295
-0.4,-0.275,-0.365,-0.28,-0.37,-0.265,-0.45,-0.335,-0.485,-0.17,-0.375,-0.285
-0.39,-0.275,-0.35,-0.275,-0.365,-0.255,-0.455,-0.33,-0.52,-0.155,-0.395,-0.28
-0.39,-0.285,-0.35,-0.295,-0.355,-0.26,-0.425,-0.325,-0.475,-0.14,-0.4,-0.285
-0.385,-0.29,-0.36,-0.305,-0.36,-0.25,-0.43,-0.32,-0.42,-0.13,-0.385,-0.295
-0.405,-0.315,-0.36,-0.31,-0.37,-0.25,-0.43,-0.31,-0.41,-0.125,-0.385,-0.29
-0.415,-0.315,-0.355,-0.31,-0.38,-0.27,-0.455,-0.33,-0.425,-0.11,-0.385,-0.29
-0.415,-0.305,-0.345,-0.32,-0.38,-0.275,-0.44,-0.335,-0.425,-0.125,-0.4,-0.295
-0.4,-0.29,-0.35,-0.305,-0.365,-0.26,-0.435,-0.33,-0.43,-0.135,-0.43,-0.315
-0.395,-0.31,-0.345,-0.32,-0.37,-0.255,-0.425,-0.32,-0.43,-0.145,-0.445,-0.33
-0.405,-0.32,-0.355,-0.345,-0.365,-0.27,-0.435,-0.31,-0.41,-0.145,-0.465,-0.345
-0.415,-0.32,-0.37,-0.35,-0.38,-0.255,-0.435,-0.31,-0.42,-0.13,-0.475,-0.385
-0.42,-0.335,-0.365,-0.355,-0.39,-0.27,-0.445,-0.315,-0.44,-0.14,-0.51,-0.395
-0.42,-0.33,-0.355,-0.355,-0.38,-0.27,-0.45,-0.33,-0.435,-0.14,-0.575,-0.405
-0.41,-0.325,-0.36,-0.35,-0.38,-0.275,-0.44,-0.32,-0.445,-0.145,-0.605,-0.365
-0.415,-0.345,-0.365,-0.35,-0.365,-0.265,-0.44,-0.32,-0.44,-0.14,-0.565,-0.3
-0.425,-0.35,-0.365,-0.36,-0.365,-0.26,-0.435,-0.32,-0.425,-0.13,-0.45,-0.215
-0.42,-0.365,-0.38,-0.38,-0.375,-0.28,-0.44,-0.305,-0.415,-0.13,-0.305,-0.12
-0.435,-0.37,-0.385,-0.385,-0.385,-0.27,-0.44,-0.305,-0.425,-0.115,-0.14,-0.04
-0.43,-0.355,-0.375,-0.38,-0.385,-0.275,-0.445,-0.325,-0.44,-0.14,0.06,0.045
-0.43,-0.36,-0.37,-0.38,-0.375,-0.27,-0.425,-0.31,-0.455,-0.145,0.3,0.14
-0.42,-0.37,-0.375,-0.375,-0.36,-0.27,-0.42,-0.305,-0.45,-0.155,0.55,0.245
-0.43,-0.39,-0.385,-0.385,-0.355,-0.28,-0.415,-0.3,-0.43,-0.155,0.74,0.34
-0.45,-0.395,-0.395,-0.395,-0.37,-0.295,-0.425,-0.295,-0.425,-0.13,0.81,0.38
-0.455,-0.4,-0.375,-0.38,-0.375,-0.3,-0.445,-0.32,-0.43,-0.135,0.715,0.24
-0.45,-0.39,-0.385,-0.39,-0.37,-0.3,-0.45,-0.33,-0.445,-0.135,0.42,-0.05
-0.435,-0.385,-0.38,-0.38,-0.37,-0.295,-0.435,-0.325,-0.44,-0.15,0.035,-0.33
-0.445,-0.39,-0.37,-0.385,-0.355,-0.295,-0.425,-0.325,-0.43,-0.145,-0.3,-0.45
-0.45,-0.4,-0.385,-0.38,-0.365,-0.29,-0.43,-0.32,-0.415,-0.145,-0.465,-0.435
-0.455,-0.41,-0.385,-0.375,-0.36,-0.315,-0.45,-0.32,-0.415,-0.13,-0.52,-0.36
-0.47,-0.42,-0.38,-0.37,-0.385,-0.335,-0.45,-0.32,-0.43,-0.145,-0.49,-0.34
-0.46,-0.405,-0.37,-0.335,-0.385,-0.325,-0.44,-0.33,-0.44,-0.135,-0.45,-0.32
-0.455,-0.41,-0.36,-0.315,-0.38,-0.325,-0.45,-0.335,-0.445,-0.15,-0.425,-0.32
-0.45,-0.41,-0.35,-0.31,-0.36,-0.31,-0.425,-0.335,-0.435,-0.15,-0.445,-0.335
-0.455,-0.4,-0.335,-0.3,-0.365,-0.32,-0.435,-0.325,-0.415,-0.15,-0.435,-0.345
-0.47,-0.405,-0.33,-0.31,-0.375,-0.345,-0.445,-0.335,-0.42,-0.145,-0.435,-0.33
-0.475,-0.39,-0.315,-0.285,-0.38,-0.36,-0.45,-0.335,-0.44,-0.15,-0.44,-0.335
-0.46,-0.385,-0.295,-0.26,-0.37,-0.365,-0.445,-0.34,-0.435,-0.14,-0.43,-0.325
-0.45,-0.365,-0.29,-0.225,-0.37,-0.365,-0.44,-0.35,-0.445,-0.15,-0.425,-0.315
-0.445,-0.355,-0.29,-0.225,-0.37,-0.35,-0.425,-0.34,-0.425,-0.155,-0.43,-0.34
-0.44,-0.345,-0.285,-0.22,-0.36,-0.37,-0.43,-0.34,-0.42,-0.145,-0.41,-0.335
-0.435,-0.355,-0.29,-0.23,-0.385,-0.375,-0.45,-0.35,-0.43,-0.135,-0.415,-0.325
-0.44,-0.33,-0.28,-0.215,-0.395,-0.39,-0.45,-0.355,-0.43,-0.135,-0.415,-0.32
-0.41,-0.295,-0.28,-0.205,-0.38,-0.405,-0.445,-0.365,-0.44,-0.145,-0.42,-0.315
-0.395,-0.275,-0.26,-0.195,-0.375,-0.405,-0.43,-0.375,-0.435,-0.155,-0.445,-0.325
-0.37,-0.27,-0.255,-0.185,-0.365,-0.4,-0.43,-0.375,-0.435,-0.16,-0.455,-0.325
-0.365,-0.26,-0.27,-0.195,-0.375,-0.415,-0.435,-0.355,-0.425,-0.16,-0.435,-0.335
-0.36,-0.265,-0.275,-0.19,-0.385,-0.42,-0.435,-0.37,-0.43,-0.15,-0.425,-0.335
-0.365,-0.265,-0.26,-0.18,-0.39,-0.425,-0.445,-0.37,-0.44,-0.15,-0.42,-0.33
-0.34,-0.245,-0.25,-0.17,-0.375,-0.43,-0.445,-0.39,-0.44,-0.135,-0.43,-0.31
-0.325,-0.225,-0.245,-0.15,-0.37,-0.425,-0.43,-0.405,-0.445,-0.16,-0.435,-0.31
-0.315,-0.21,-0.25,-0.16,-0.37,-0.415,-0.425,-0.41,-0.44,-0.15,-0.435,-0.31
-0.32,-0.215,-0.26,-0.175,-0.37,-0.425,-0.43,-0.4,-0.425,-0.15,-0.435,-0.32
-0.33,-0.215,-0.265,-0.185,-0.37,-0.43,-0.445,-0.41,-0.43,-0.14,-0.425,-0.33
-0.33,-0.205,-0.245,-0.175,-0.385,-0.425,-0.435,-0.41,-0.43,-0.145,-0.43,-0.305
-0.32,-0.195,-0.235,-0.17,-0.38,-0.43,-0.43,-0.41,-0.435,-0.15,-0.43,-0.31
-0.31,-0.185,-0.245,-0.16,-0.385,-0.395,-0.43,-0.43,-0.435,-0.16,-0.445,-0.31
-0.3,-0.185,-0.24,-0.165,-0.37,-0.38,-0.425,-0.42,-0.435,-0.17,-0.45,-0.33
-0.3,-0.195,-0.25,-0.165,-0.37,-0.375,-0.42,-0.425,-0.43,-0.17,-0.445,-0.33
-0.32,-0.195,-0.265,-0.18,-0.37,-0.37,-0.425,-0.425,-0.435,-0.17,-0.43,-0.32
-0.32,-0.195,-0.25,-0.175,-0.38,-0.375,-0.44,-0.425,-0.435,-0.165,-0.435,-0.315
-0.315,-0.185,-0.25,-0.17,-0.37,-0.35,-0.44,-0.435,-0.43,-0.175,-0.43,-0.31
-0.305,-0.17,-0.25,-0.165,-0.345,-0.325,-0.435,-0.45,-0.425,-0.18,-0.435,-0.31
-0.305,-0.185,-0.25,-0.17,-0.34,-0.3,-0.435,-0.44,-0.42,-0.19,-0.43,-0.32
-0.295,-0.195,-0.255,-0.18,-0.325,-0.295,-0.435,-0.43,-0.405,-0.185,-0.425,-0.325
-0.32,-0.195,-0.265,-0.185,-0.335,-0.28,-0.44,-0.43,-0.42,-0.18,-0.42,-0.315
-0.33,-0.195,-0.26,-0.19,-0.325,-0.28,-0.455,-0.45,-0.43,-0.19,-0.415,-0.3
-0.305,-0.185,-0.24,-0.17,-0.305,-0.275,-0.455,-0.45,-0.435,-0.2,-0.415,-0.29
-0.31,-0.175,-0.25,-0.155,-0.295,-0.26,-0.435,-0.45,-0.445,-0.2,-0.44,-0.31
-0.3,-0.175,-0.245,-0.16,-0.295,-0.245,-0.425,-0.445,-0.425,-0.21,-0.445,-0.31
-0.3,-0.185,-0.25,-0.165,-0.3,-0.265,-0.43,-0.415,-0.41,-0.2,-0.435,-0.33
-0.32,-0.195,-0.27,-0.175,-0.3,-0.255,-0.43,-0.415,-0.42,-0.195,-0.425,-0.325
-0.325,-0.195,-0.265,-0.18,-0.305,-0.255,-0.44,-0.42,-0.435,-0.215,-0.43,-0.305
-0.31,-0.195,-0.27,-0.17,-0.295,-0.255,-0.43,-0.425,-0.44,-0.22,-0.44,-0.31
-0.305,-0.18,-0.265,-0.165,-0.28,-0.225,-0.43,-0.42,-0.445,-0.24,-0.465,-0.315
-0.315,-0.185,-0.265,-0.165,-0.285,-0.215,-0.42,-0.405,-0.435,-0.255,-0.46,-0.335
-0.305,-0.19,-0.275,-0.175,-0.275,-0.22,-0.42,-0.385,-0.43,-0.245,-0.45,-0.355
-0.315,-0.195,-0.285,-0.185,-0.265,-0.21,-0.43,-0.385,-0.43,-0.235,-0.445,-0.335
-0.315,-0.195,-0.275,-0.19,-0.28,-0.215,-0.425,-0.375,-0.44,-0.24,-0.45,-0.32
-0.31,-0.19,-0.265,-0.19,-0.275,-0.22,-0.415,-0.365,-0.46,-0.25,-0.455,-0.32
-0.295,-0.185,-0.27,-0.175,-0.255,-0.215,-0.385,-0.35,-0.475,-0.26,-0.445,-0.33
-0.29,-0.185,-0.27,-0.19,-0.265,-0.2,-0.375,-0.335,-0.45,-0.275,-0.45,-0.325
-0.305,-0.19,-0.28,-0.18,-0.26,-0.195,-0.365,-0.315,-0.44,-0.27,-0.44,-0.335
-0.31,-0.2,-0.285,-0.195,-0.265,-0.21,-0.365,-0.295,-0.44,-0.255,-0.43,-0.325
-0.32,-0.215,-0.285,-0.195,-0.285,-0.21,-0.37,-0.295,-0.44,-0.275,-0.415,-0.32
-0.315,-0.195,-0.28,-0.18,-0.285,-0.215,-0.355,-0.295,-0.475,-0.28,-0.425,-0.33
-0.3,-0.185,-0.285,-0.18,-0.275,-0.215,-0.365,-0.305,-0.46,-0.28,-0.425,-0.325
-0.315,-0.185,-0.28,-0.19,-0.26,-0.2,-0.35,-0.28,-0.45,-0.285,-0.445,-0.335
-0.315,-0.185,-0.285,-0.205,-0.265,-0.205,-0.34,-0.265,-0.44,-0.29,-0.43,-0.335
-0.315,-0.2,-0.3,-0.215,-0.285,-0.215,-0.345,-0.27,-0.44,-0.28,-0.43,-0.35
-0.33,-0.205,-0.29,-0.215,-0.285,-0.22,-0.345,-0.26,-0.45,-0.28,-0.445,-0.345
-0.315,-0.19,-0.285,-0.21,-0.29,-0.23,-0.35,-0.275,-0.46,-0.285,-0.445,-0.34
-0.32,-0.19,-0.27,-0.19,-0.275,-0.2,-0.355,-0.275,-0.47,-0.3,-0.455,-0.34
-0.315,-0.2,-0.28,-0.185,-0.275,-0.21,-0.345,-0.265,-0.465,-0.31,-0.445,-0.36
-0.325,-0.2,-0.295,-0.2,-0.265,-0.215,-0.335,-0.26,-0.45,-0.3,-0.45,-0.365
-0.335,-0.195,-0.29,-0.205,-0.275,-0.225,-0.335,-0.26,-0.45,-0.295,-0.44,-0.365
-0.34,-0.22,-0.29,-0.225,-0.305,-0.22,-0.345,-0.26,-0.465,-0.29,-0.435,-0.355
-0.335,-0.205,-0.295,-0.205,-0.29,-0.225,-0.345,-0.255,-0.455,-0.275,-0.44,-0.36
-0.335,-0.19,-0.29,-0.2,-0.285,-0.215,-0.34,-0.26,-0.46,-0.285,-0.45,-0.365
-0.33,-0.2,-0.285,-0.205,-0.285,-0.21,-0.33,-0.25,-0.45,-0.265,-0.46,-0.39
-0.325,-0.22,-0.305,-0.205,-0.275,-0.2,-0.335,-0.265,-0.435,-0.26,-0.45,-0.41
-0.345,-0.23,-0.315,-0.215,-0.295,-0.235,-0.355,-0.265,-0.435,-0.24,-0.44,-0.395
-0.35,-0.21,-0.31,-0.215,-0.3,-0.225,-0.36,-0.265,-0.43,-0.235,-0.44,-0.385
-0.345,-0.205,-0.31,-0.2,-0.28,-0.22,-0.36,-0.27,-0.435,-0.225,-0.45,-0.375
-0.335,-0.2,-0.29,-0.2,-0.28,-0.215,-0.355,-0.27,-0.43,-0.225,-0.455,-0.38
-0.33,-0.195,-0.295,-0.21,-0.27,-0.21,-0.345,-0.25,-0.405,-0.21,-0.47,-0.405
-0.33,-0.22,-0.31,-0.21,-0.28,-0.205,-0.34,-0.255,-0.405,-0.195,-0.47,-0.42
-0.345,-0.225,-0.32,-0.23,-0.295,-0.235,-0.345,-0.25,-0.385,-0.17,-0.475,-0.42
-0.345,-0.225,-0.315,-0.215,-0.3,-0.235,-0.35,-0.24,-0.385,-0.16,-0.485,-0.4
-0.345,-0.215,-0.31,-0.22,-0.31,-0.255,-0.355,-0.265,-0.385,-0.155,-0.475,-0.4
-0.32,-0.205,-0.3,-0.205,-0.315,-0.225,-0.34,-0.27,-0.39,-0.16,-0.475,-0.425
-0.33,-0.205,-0.3,-0.205,-0.305,-0.225,-0.34,-0.27,-0.38,-0.16,-0.485,-0.45
-0.335,-0.215,-0.315,-0.22,-0.305,-0.22,-0.34,-0.26,-0.37,-0.15,-0.48,-0.455
-0.34,-0.225,-0.32,-0.235,-0.335,-0.23,-0.35,-0.26,-0.375,-0.145,-0.475,-0.445
-0.355,-0.22,-0.315,-0.225,-0.335,-0.25,-0.375,-0.26,-0.37,-0.14,-0.485,-0.44
-0.335,-0.225,-0.32,-0.22,-0.32,-0.26,-0.36,-0.27,-0.36,-0.14,-0.49,-0.445
-0.33,-0.195,-0.29,-0.21,-0.32,-0.24,-0.355,-0.28,-0.365,-0.145,-0.505,-0.455
-0.33,-0.215,-0.3,-0.215,-0.31,-0.235,-0.34,-0.275,-0.36,-0.145,-0.51,-0.465
-0.335,-0.22,-0.3,-0.22,-0.32,-0.24,-0.345,-0.27,-0.345,-0.145,-0.515,-0.475
-0.355,-0.215,-0.315,-0.23,-0.33,-0.23,-0.36,-0.265,-0.36,-0.13,-0.505,-0.47
-0.36,-0.225,-0.31,-0.22,-0.33,-0.245,-0.385,-0.275,-0.35,-0.125,-0.48,-0.455
-0.355,-0.215,-0.3,-0.22,-0.33,-0.245,-0.375,-0.285,-0.35,-0.125,-0.495,-0.425
-0.35,-0.21,-0.3,-0.215,-0.33,-0.24,-0.365,-0.29,-0.355,-0.145,-0.485,-0.425
-0.34,-0.21,-0.29,-0.21,-0.31,-0.235,-0.36,-0.27,-0.35,-0.15,-0.485,-0.43
-0.345,-0.225,-0.31,-0.235,-0.315,-0.235,-0.365,-0.26,-0.35,-0.14,-0.46,-0.42
-0.345,-0.23,-0.325,-0.225,-0.32,-0.25,-0.385,-0.275,-0.34,-0.145,-0.44,-0.405
-0.345,-0.22,-0.315,-0.22,-0.335,-0.25,-0.395,-0.28,-0.355,-0.14,-0.435,-0.38
-0.345,-0.21,-0.305,-0.22,-0.33,-0.25,-0.395,-0.29,-0.375,-0.15,-0.42,-0.37
-0.33,-0.205,-0.305,-0.2,-0.315,-0.225,-0.38,-0.31,-0.38,-0.16,-0.415,-0.355
-0.33,-0.2,-0.305,-0.22,-0.31,-0.225,-0.38,-0.295,-0.365,-0.15,-0.42,-0.35
-0.335,-0.205,-0.315,-0.215,-0.315,-0.235,-0.375,-0.275,-0.35,-0.135,-0.4,-0.34
-0.345,-0.22,-0.325,-0.235,-0.33,-0.24,-0.38,-0.29,-0.36,-0.14,-0.38,-0.32
-0.35,-0.23,-0.32,-0.23,-0.34,-0.25,-0.4,-0.28,-0.37,-0.145,-0.36,-0.3
-0.35,-0.215,-0.31,-0.225,-0.335,-0.26,-0.395,-0.285,-0.37,-0.155,-0.36,-0.3
-0.34,-0.205,-0.3,-0.21,-0.34,-0.23,-0.375,-0.29,-0.38,-0.155,-0.37,-0.29
-0.33,-0.2,-0.295,-0.215,-0.305,-0.215,-0.375,-0.28,-0.385,-0.16,-0.37,-0.29
-0.345,-0.23,-0.315,-0.22,-0.32,-0.22,-0.385,-0.275,-0.37,-0.15,-0.355,-0.295
-0.345,-0.22,-0.32,-0.225,-0.33,-0.235,-0.395,-0.285,-0.375,-0.15,-0.34,-0.28
-0.355,-0.215,-0.305,-0.215,-0.34,-0.24,-0.4,-0.295,-0.39,-0.16,-0.33,-0.265
-0.35,-0.205,-0.3,-0.21,-0.335,-0.255,-0.41,-0.305,-0.4,-0.165,-0.325,-0.27
-0.34,-0.2,-0.29,-0.2,-0.32,-0.24,-0.39,-0.305,-0.395,-0.175,-0.335,-0.265
-0.33,-0.205,-0.295,-0.21,-0.32,-0.225,-0.385,-0.285,-0.385,-0.17,-0.35,-0.285
-0.34,-0.22,-0.295,-0.22,-0.33,-0.22,-0.38,-0.275,-0.36,-0.175,-0.345,-0.285
-0.34,-0.22,-0.31,-0.225,-0.33,-0.23,-0.39,-0.285,-0.365,-0.17,-0.335,-0.275
-0.34,-0.225,-0.295,-0.225,-0.335,-0.235,-0.415,-0.29,-0.375,-0.175,-0.335,-0.27
-0.33,-0.205,-0.295,-0.225,-0.325,-0.23,-0.41,-0.31,-0.375,-0.16,-0.335,-0.255
-0.335,-0.2,-0.285,-0.21,-0.315,-0.225,-0.4,-0.32,-0.385,-0.18,-0.355,-0.265
-0.33,-0.2,-0.295,-0.205,-0.32,-0.215,-0.395,-0.305,-0.38,-0.18,-0.35,-0.275
-0.335,-0.21,-0.295,-0.21,-0.315,-0.21,-0.385,-0.285,-0.385,-0.175,-0.35,-0.285
-0.345,-0.23,-0.31,-0.23,-0.32,-0.215,-0.4,-0.28,-0.385,-0.165,-0.34,-0.28
-0.345,-0.215,-0.3,-0.225,-0.31,-0.225,-0.42,-0.3,-0.39,-0.17,-0.335,-0.265
-0.34,-0.2,-0.285,-0.215,-0.31,-0.225,-0.425,-0.3,-0.395,-0.175,-0.34,-0.265
-0.33,-0.2,-0.28,-0.21,-0.31,-0.21,-0.415,-0.305,-0.4,-0.19,-0.35,-0.27
-0.315,-0.205,-0.275,-0.21,-0.305,-0.21,-0.41,-0.31,-0.39,-0.185,-0.355,-0.28
-0.295,-0.21,-0.28,-0.225,-0.3,-0.215,-0.41,-0.295,-0.38,-0.18,-0.345,-0.285
-0.3,-0.215,-0.265,-0.225,-0.31,-0.22,-0.43,-0.295,-0.375,-0.165,-0.33,-0.29
-0.295,-0.22,-0.245,-0.225,-0.31,-0.22,-0.43,-0.295,-0.385,-0.17,-0.335,-0.275
-0.285,-0.205,-0.23,-0.205,-0.3,-0.225,-0.43,-0.305,-0.395,-0.17,-0.34,-0.28
-0.275,-0.2,-0.24,-0.2,-0.285,-0.215,-0.42,-0.31,-0.415,-0.19,-0.35,-0.275
-0.265,-0.195,-0.24,-0.21,-0.29,-0.2,-0.42,-0.3,-0.405,-0.195,-0.35,-0.285
-0.265,-0.205,-0.24,-0.22,-0.275,-0.22,-0.415,-0.285,-0.39,-0.19,-0.345,-0.29
-0.265,-0.205,-0.245,-0.21,-0.275,-0.23,-0.42,-0.29,-0.39,-0.17,-0.34,-0.275
-0.255,-0.205,-0.22,-0.215,-0.275,-0.23,-0.42,-0.305,-0.405,-0.17,-0.35,-0.265
-0.25,-0.18,-0.22,-0.19,-0.27,-0.225,-0.415,-0.305,-0.41,-0.17,-0.355,-0.27
-0.24,-0.17,-0.215,-0.19,-0.255,-0.21,-0.415,-0.305,-0.415,-0.185,-0.36,-0.27
-0.225,-0.19,-0.2,-0.185,-0.24,-0.205,-0.4,-0.29,-0.405,-0.185,-0.375,-0.28
-0.215,-0.19,-0.2,-0.185,-0.245,-0.21,-0.39,-0.28,-0.4,-0.185,-0.37,-0.3
-0.24,-0.2,-0.21,-0.185,-0.24,-0.205,-0.4,-0.295,-0.41,-0.18,-0.36,-0.295
-0.245,-0.185,-0.205,-0.2,-0.245,-0.215,-0.41,-0.285,-0.39,-0.185,-0.355,-0.28
-0.24,-0.165,-0.195,-0.185,-0.245,-0.21,-0.415,-0.305,-0.4,-0.185,-0.37,-0.265
-0.245,-0.145,-0.205,-0.17,-0.22,-0.195,-0.405,-0.3,-0.405,-0.195,-0.37,-0.28
-0.235,-0.145,-0.21,-0.17,-0.205,-0.175,-0.4,-0.295,-0.395,-0.195,-0.38,-0.285
-0.245,-0.17,-0.215,-0.155,-0.19,-0.165,-0.4,-0.3,-0.395,-0.18,-0.38,-0.295
-0.25,-0.175,-0.225,-0.16,-0.195,-0.19,-0.41,-0.3,-0.4,-0.18,-0.365,-0.3
-0.275,-0.17,-0.225,-0.16,-0.19,-0.19,-0.42,-0.295,-0.405,-0.175,-0.375,-0.285
-0.275,-0.165,-0.2,-0.175,-0.2,-0.185,-0.42,-0.295,-0.41,-0.19,-0.38,-0.29
-0.265,-0.15,-0.2,-0.165,-0.195,-0.18,-0.41,-0.305,-0.41,-0.2,-0.39,-0.29
-0.25,-0.16,-0.21,-0.16,-0.2,-0.18,-0.4,-0.29,-0.395,-0.21,-0.39,-0.305
-0.225,-0.175,-0.225,-0.16,-0.21,-0.175,-0.415,-0.29,-0.395,-0.185,-0.39,-0.31
-0.22,-0.19,-0.22,-0.165,-0.215,-0.185,-0.42,-0.295,-0.395,-0.175,-0.37,-0.305
-0.23,-0.19,-0.195,-0.17,-0.22,-0.19,-0.43,-0.295,-0.4,-0.17,-0.37,-0.29
-0.265,-0.185,-0.18,-0.165,-0.21,-0.195,-0.425,-0.31,-0.415,-0.18,-0.375,-0.295
-0.27,-0.185,-0.175,-0.16,-0.21,-0.175,-0.41,-0.31,-0.415,-0.185,-0.395,-0.29
-0.28,-0.175,-0.205,-0.175,-0.2,-0.155,-0.395,-0.3,-0.405,-0.19,-0.38,-0.3
-0.285,-0.195,-0.245,-0.195,-0.21,-0.15,-0.38,-0.29,-0.39,-0.185,-0.375,-0.3
-0.305,-0.215,-0.265,-0.2,-0.22,-0.155,-0.375,-0.29,-0.39,-0.18,-0.355,-0.31
-0.32,-0.205,-0.275,-0.205,-0.215,-0.17,-0.37,-0.285,-0.4,-0.175,-0.36,-0.3
-0.34,-0.2,-0.28,-0.195,-0.22,-0.175,-0.355,-0.305,-0.395,-0.17,-0.37,-0.29
-0.33,-0.195,-0.285,-0.195,-0.235,-0.165,-0.345,-0.32,-0.405,-0.18,-0.38,-0.305
-0.335,-0.205,-0.3,-0.205,-0.225,-0.155,-0.335,-0.295,-0.395,-0.195,-0.385,-0.305
-0.335,-0.21,-0.31,-0.2,-0.225,-0.16,-0.335,-0.28,-0.395,-0.2,-0.38,-0.31
-0.355,-0.22,-0.325,-0.22,-0.22,-0.17,-0.335,-0.275,-0.4,-0.175,-0.375,-0.305
-0.37,-0.215,-0.32,-0.225,-0.2,-0.18,-0.335,-0.27,-0.415,-0.17,-0.38,-0.29
-0.36,-0.21,-0.325,-0.22,-0.205,-0.19,-0.31,-0.28,-0.42,-0.175,-0.38,-0.285
-0.345,-0.205,-0.31,-0.21,-0.23,-0.185,-0.3,-0.275,-0.43,-0.185,-0.395,-0.295
-0.35,-0.2,-0.325,-0.215,-0.25,-0.17,-0.305,-0.27,-0.42,-0.2,-0.39,-0.305
-0.355,-0.21,-0.33,-0.22,-0.26,-0.19,-0.295,-0.26,-0.415,-0.195,-0.385,-0.31
-0.365,-0.22,-0.34,-0.23,-0.285,-0.205,-0.29,-0.265,-0.41,-0.185,-0.375,-0.3
-0.375,-0.22,-0.335,-0.24,-0.3,-0.21,-0.3,-0.26,-0.41,-0.17,-0.38,-0.285
-0.38,-0.22,-0.33,-0.215,-0.315,-0.22,-0.3,-0.26,-0.415,-0.18,-0.38,-0.29
-0.37,-0.2,-0.325,-0.215,-0.33,-0.215,-0.295,-0.255,-0.405,-0.18,-0.385,-0.28
-0.365,-0.205,-0.32,-0.225,-0.325,-0.21,-0.295,-0.255,-0.39,-0.19,-0.395,-0.295
-0.365,-0.215,-0.34,-0.235,-0.335,-0.215,-0.305,-0.245,-0.375,-0.195,-0.39,-0.305
-0.38,-0.225,-0.345,-0.24,-0.34,-0.225,-0.315,-0.24,-0.385,-0.175,-0.395,-0.3
-0.385,-0.22,-0.34,-0.25,-0.345,-0.235,-0.33,-0.25,-0.39,-0.175,-0.37,-0.3
-0.38,-0.215,-0.33,-0.23,-0.33,-0.225,-0.325,-0.25,-0.39,-0.175,-0.38,-0.285
-0.375,-0.205,-0.335,-0.205,-0.32,-0.225,-0.325,-0.25,-0.39,-0.195,-0.375,-0.28
-0.355,-0.22,-0.33,-0.225,-0.32,-0.215,-0.32,-0.25,-0.385,-0.19,-0.38,-0.28
-0.37,-0.225,-0.34,-0.23,-0.325,-0.21,-0.315,-0.23,-0.38,-0.185,-0.37,-0.295
-0.39,-0.24,-0.34,-0.24,-0.335,-0.22,-0.33,-0.24,-0.365,-0.185,-0.36,-0.295
-0.405,-0.26,-0.335,-0.25,-0.335,-0.225,-0.355,-0.24,-0.37,-0.185,-0.375,-0.285
-0.41,-0.28,-0.335,-0.23,-0.335,-0.225,-0.345,-0.245,-0.37,-0.195,-0.385,-0.29
-0.435,-0.3,-0.33,-0.215,-0.33,-0.235,-0.32,-0.26,-0.37,-0.19,-0.385,-0.29
-0.465,-0.345,-0.335,-0.23,-0.33,-0.225,-0.295,-0.245,-0.345,-0.2,-0.39,-0.295
-0.49,-0.375,-0.345,-0.255,-0.335,-0.235,-0.305,-0.25,-0.335,-0.195,-0.39,-0.295
-0.52,-0.345,-0.375,-0.28,-0.35,-0.225,-0.325,-0.26,-0.34,-0.17,-0.375,-0.29
-0.555,-0.26,-0.395,-0.305,-0.355,-0.235,-0.375,-0.265,-0.34,-0.165,-0.375,-0.28
-0.57,-0.125,-0.43,-0.315,-0.35,-0.24,-0.38,-0.285,-0.34,-0.165,-0.375,-0.27
-0.525,0.025,-0.44,-0.325,-0.345,-0.235,-0.385,-0.29,-0.335,-0.18,-0.385,-0.28
-0.405,0.145,-0.45,-0.33,-0.34,-0.225,-0.395,-0.28,-0.32,-0.18,-0.395,-0.29
-0.25,0.26,-0.45,-0.35,-0.35,-0.24,-0.405,-0.27,-0.305,-0.19,-0.4,-0.285
-0.09,0.375,-0.475,-0.375,-0.36,-0.26,-0.42,-0.28,-0.305,-0.16,-0.38,-0.295
0.12,0.505,-0.48,-0.415,-0.39,-0.285,-0.435,-0.29,-0.3,-0.155,-0.375,-0.285
0.41,0.635,-0.51,-0.415,-0.4,-0.31,-0.43,-0.3,-0.31,-0.155,-0.375,-0.285
0.69,0.705,-0.55,-0.375,-0.435,-0.325,-0.42,-0.3,-0.325,-0.175,-0.39,-0.285
0.885,0.61,-0.575,-0.32,-0.465,-0.355,-0.405,-0.29,-0.315,-0.185,-0.385,-0.3
0.96,0.32,-0.545,-0.235,-0.48,-0.39,-0.4,-0.28,-0.31,-0.175,-0.365,-0.3
0.85,-0.045,-0.49,-0.125,-0.515,-0.405,-0.415,-0.285,-0.32,-0.155,-0.335,-0.29
0.52,-0.25,-0.375,0,-0.57,-0.36,-0.435,-0.285,-0.325,-0.135,-0.335,-0.285
0.05,-0.27,-0.25,0.115,-0.58,-0.265,-0.44,-0.305,-0.315,-0.135,-0.315,-0.275
-0.32,-0.24,-0.12,0.205,-0.52,-0.14,-0.45,-0.315,-0.32,-0.145,-0.325,-0.275
-0.5,-0.24,0.06,0.315,-0.4,-0.02,-0.43,-0.295,-0.325,-0.155,-0.32,-0.29
-0.505,-0.25,0.285,0.42,-0.25,0.055,-0.44,-0.295,-0.32,-0.16,-0.305,-0.3
-0.445,-0.255,0.525,0.525,-0.095,0.13,-0.445,-0.3,-0.325,-0.135,-0.305,-0.285
-0.415,-0.245,0.74,0.61,0.1,0.245,-0.45,-0.295,-0.33,-0.14,-0.295,-0.27
-0.395,-0.245,0.86,0.615,0.395,0.365,-0.455,-0.305,-0.32,-0.145,-0.29,-0.26
-0.39,-0.245,0.89,0.47,0.66,0.475,-0.45,-0.31,-0.305,-0.155,-0.29,-0.255
-0.395,-0.255,0.73,0.135,0.83,0.53,-0.435,-0.305,-0.305,-0.175,-0.29,-0.255
-0.39,-0.26,0.425,-0.165,0.88,0.405,-0.44,-0.305,-0.32,-0.185,-0.285,-0.265
-0.395,-0.26,0.015,-0.325,0.76,0.105,-0.45,-0.3,-0.36,-0.175,-0.275,-0.26
-0.405,-0.27,-0.285,-0.305,0.46,-0.21,-0.46,-0.29,-0.395,-0.17,-0.285,-0.24
-0.395,-0.245,-0.435,-0.27,0.07,-0.355,-0.445,-0.305,-0.39,-0.175,-0.295,-0.245
-0.405,-0.245,-0.45,-0.26,-0.24,-0.355,-0.44,-0.305,-0.415,-0.18,-0.315,-0.235
-0.39,-0.25,-0.435,-0.26,-0.425,-0.29,-0.435,-0.3,-0.41,-0.195,-0.305,-0.24
-0.395,-0.265,-0.385,-0.25,-0.485,-0.285,-0.43,-0.295,-0.405,-0.195,-0.3,-0.245
-0.395,-0.27,-0.38,-0.27,-0.48,-0.28,-0.435,-0.3,-0.42,-0.19,-0.285,-0.215
-0.41,-0.27,-0.37,-0.275,-0.43,-0.28,-0.46,-0.31,-0.435,-0.19,-0.285,-0.215
-0.405,-0.265,-0.37,-0.26,-0.4,-0.29,-0.49,-0.335,-0.445,-0.2,-0.29,-0.215
-0.4,-0.26,-0.37,-0.26,-0.395,-0.29,-0.51,-0.36,-0.455,-0.2,-0.305,-0.21
-0.4,-0.26,-0.36,-0.275,-0.4,-0.275,-0.525,-0.37,-0.435,-0.205,-0.31,-0.23
-0.415,-0.27,-0.36,-0.27,-0.4,-0.275,-0.55,-0.38,-0.425,-0.2,-0.305,-0.225
-0.405,-0.28,-0.37,-0.27,-0.395,-0.28,-0.595,-0.405,-0.42,-0.185,-0.305,-0.22
-0.42,-0.28,-0.385,-0.27,-0.39,-0.29,-0.645,-0.41,-0.435,-0.195,-0.28,-0.225
-0.415,-0.27,-0.365,-0.265,-0.375,-0.285,-0.645,-0.38,-0.43,-0.195,-0.285,-0.225
-0.405,-0.255,-0.36,-0.26,-0.365,-0.29,-0.555,-0.295,-0.455,-0.205,-0.29,-0.24
-0.405,-0.265,-0.365,-0.27,-0.37,-0.29,-0.435,-0.18,-0.445,-0.205,-0.315,-0.25
-0.42,-0.28,-0.365,-0.27,-0.385,-0.285,-0.305,-0.095,-0.43,-0.205,-0.335,-0.25
-0.42,-0.29,-0.375,-0.28,-0.395,-0.29,-0.135,-0.015,-0.43,-0.2,-0.345,-0.26
-0.435,-0.275,-0.385,-0.285,-0.405,-0.305,0.105,0.05,-0.435,-0.195,-0.345,-0.245
-0.42,-0.265,-0.36,-0.265,-0.39,-0.305,0.4,0.15,-0.455,-0.2,-0.375,-0.24
-0.41,-0.255,-0.365,-0.255,-0.39,-0.3,0.655,0.255,-0.45,-0.22,-0.375,-0.25
-0.41,-0.26,-0.355,-0.26,-0.385,-0.28,0.795,0.34,-0.44,-0.225,-0.38,-0.255
-0.405,-0.26,-0.375,-0.27,-0.38,-0.3,0.79,0.345,-0.43,-0.215,-0.385,-0.27
-0.425,-0.28,-0.38,-0.275,-0.395,-0.295,0.6,0.175,-0.415,-0.195,-0.39,-0.27
-0.43,-0.28,-0.375,-0.285,-0.4,-0.295,0.23,-0.115,-0.445,-0.2,-0.385,-0.255
-0.42,-0.265,-0.355,-0.27,-0.38,-0.285,-0.145,-0.355,-0.465,-0.21,-0.39,-0.255
-0.415,-0.26,-0.355,-0.265,-0.38,-0.275,-0.4,-0.455,-0.45,-0.215,-0.39,-0.255
-0.41,-0.255,-0.36,-0.265,-0.375,-0.265,-0.52,-0.425,-0.445,-0.23,-0.4,-0.265
-0.41,-0.26,-0.365,-0.26,-0.385,-0.28,-0.56,-0.37,-0.45,-0.23,-0.42,-0.27
-0.425,-0.275,-0.38,-0.275,-0.395,-0.3,-0.55,-0.355,-0.495,-0.245,-0.405,-0.26
-0.42,-0.27,-0.37,-0.27,-0.405,-0.3,-0.505,-0.345,-0.535,-0.25,-0.405,-0.26
-0.4,-0.275,-0.355,-0.265,-0.4,-0.3,-0.465,-0.345,-0.555,-0.265,-0.405,-0.26
-0.395,-0.265,-0.35,-0.255,-0.395,-0.295,-0.46,-0.345,-0.575,-0.31,-0.415,-0.265
-0.4,-0.265,-0.355,-0.26,-0.395,-0.27,-0.455,-0.34,-0.605,-0.34,-0.42,-0.275
-0.4,-0.27,-0.365,-0.255,-0.38,-0.285,-0.455,-0.335,-0.64,-0.345,-0.42,-0.275
-0.395,-0.28,-0.38,-0.275,-0.395,-0.285,-0.45,-0.345,-0.63,-0.28,-0.42,-0.27
-0.415,-0.285,-0.365,-0.265,-0.39,-0.29,-0.465,-0.335,-0.575,-0.2,-0.4,-0.26
-0.405,-0.28,-0.355,-0.26,-0.395,-0.295,-0.46,-0.34,-0.46,-0.085,-0.415,-0.26
-0.39,-0.255,-0.355,-0.255,-0.4,-0.29,-0.465,-0.345,-0.325,0,-0.42,-0.265
-0.4,-0.27,-0.365,-0.255,-0.39,-0.285,-0.47,-0.335,-0.15,0.06,-0.425,-0.275
-0.4,-0.28,-0.385,-0.26,-0.385,-0.275,-0.47,-0.32,0.085,0.12,-0.415,-0.28
-0.415,-0.29,-0.39,-0.265,-0.39,-0.295,-0.47,-0.33,0.35,0.215,-0.405,-0.27
-0.425,-0.29,-0.375,-0.28,-0.4,-0.29,-0.49,-0.33,0.585,0.345,-0.405,-0.28
-0.425,-0.27,-0.355,-0.26,-0.39,-0.3,-0.485,-0.35,0.735,0.48,-0.41,-0.26
-0.415,-0.27,-0.365,-0.24,-0.38,-0.295,-0.47,-0.36,0.77,0.5,-0.425,-0.275
-0.415,-0.285,-0.36,-0.25,-0.38,-0.295,-0.465,-0.35,0.63,0.335,-0.45,-0.315
-0.41,-0.3,-0.355,-0.265,-0.385,-0.285,-0.46,-0.33,0.34,0.01,-0.48,-0.36
-0.425,-0.3,-0.365,-0.27,-0.38,-0.29,-0.465,-0.34,-0.045,-0.255,-0.51,-0.37
-0.425,-0.3,-0.365,-0.28,-0.385,-0.285,-0.47,-0.34,-0.36,-0.365,-0.525,-0.37
-0.42,-0.295,-0.355,-0.265,-0.37,-0.295,-0.48,-0.35,-0.52,-0.345,-0.55,-0.395
-0.415,-0.275,-0.345,-0.25,-0.375,-0.285,-0.475,-0.355,-0.57,-0.315,-0.61,-0.42
-0.4,-0.295,-0.345,-0.255,-0.37,-0.275,-0.465,-0.35,-0.555,-0.29,-0.645,-0.41
-0.4,-0.3,-0.365,-0.26,-0.37,-0.29,-0.455,-0.33,-0.51,-0.275,-0.63,-0.36
-0.41,-0.31,-0.36,-0.27,-0.375,-0.28,-0.475,-0.335,-0.495,-0.26,-0.565,-0.28
-0.425,-0.31,-0.375,-0.28,-0.385,-0.29,-0.48,-0.335,-0.49,-0.245,-0.485,-0.185
-0.41,-0.315,-0.355,-0.275,-0.385,-0.305,-0.46,-0.34,-0.5,-0.245,-0.395,-0.085
-0.405,-0.31,-0.36,-0.26,-0.375,-0.29,-0.45,-0.345,-0.49,-0.26,-0.31,-0.005
-0.395,-0.31,-0.365,-0.27,-0.385,-0.275,-0.44,-0.325,-0.475,-0.245,-0.23,0.03
-0.4,-0.335,-0.365,-0.285,-0.38,-0.29,-0.445,-0.32,-0.48,-0.245,-0.095,0.06
-0.4,-0.345,-0.37,-0.28,-0.4,-0.29,-0.445,-0.315,-0.47,-0.245,0.07,0.14
-0.405,-0.355,-0.36,-0.28,-0.405,-0.295,-0.46,-0.325,-0.48,-0.24,0.3,0.25
-0.385,-0.35,-0.355,-0.275,-0.4,-0.305,-0.455,-0.335,-0.485,-0.24,0.545,0.375
-0.4,-0.345,-0.36,-0.28,-0.385,-0.295,-0.455,-0.345,-0.48,-0.25,0.725,0.475
-0.39,-0.36,-0.365,-0.275,-0.38,-0.295,-0.465,-0.34,-0.485,-0.25,0.815,0.525
-0.39,-0.37,-0.385,-0.27,-0.375,-0.3,-0.455,-0.335,-0.47,-0.24,0.81,0.435
-0.4,-0.375,-0.38,-0.295,-0.395,-0.32,-0.48,-0.315,-0.475,-0.225,0.63,0.17
-0.415,-0.385,-0.365,-0.305,-0.405,-0.325,-0.465,-0.325,-0.47,-0.225,0.27,-0.145
-0.405,-0.37,-0.355,-0.295,-0.405,-0.32,-0.465,-0.33,-0.48,-0.235,-0.14,-0.36
-0.405,-0.37,-0.335,-0.28,-0.395,-0.31,-0.455,-0.345,-0.485,-0.24,-0.405,-0.415
-0.41,-0.385,-0.36,-0.3,-0.39,-0.3,-0.455,-0.335,-0.46,-0.245,-0.515,-0.38
-0.415,-0.4,-0.36,-0.31,-0.38,-0.32,-0.46,-0.32,-0.455,-0.23,-0.535,-0.34
-0.42,-0.415,-0.385,-0.31,-0.385,-0.335,-0.475,-0.32,-0.47,-0.23,-0.485,-0.305
-0.42,-0.405,-0.38,-0.315,-0.395,-0.35,-0.48,-0.32,-0.47,-0.23,-0.435,-0.31
-0.425,-0.41,-0.375,-0.315,-0.375,-0.35,-0.47,-0.345,-0.475,-0.24,-0.43,-0.29
-0.415,-0.39,-0.36,-0.31,-0.375,-0.325,-0.465,-0.345,-0.485,-0.23,-0.43,-0.29
-0.415,-0.405,-0.36,-0.315,-0.38,-0.33,-0.455,-0.325,-0.465,-0.225,-0.435,-0.305
-0.41,-0.41,-0.365,-0.33,-0.385,-0.34,-0.465,-0.315,-0.455,-0.22,-0.42,-0.315
-0.435,-0.425,-0.375,-0.35,-0.375,-0.345,-0.45,-0.32,-0.45,-0.215,-0.425,-0.305
-0.43,-0.42,-0.365,-0.35,-0.385,-0.36,-0.455,-0.32,-0.46,-0.225,-0.415,-0.295
-0.435,-0.41,-0.355,-0.355,-0.385,-0.38,-0.45,-0.345,-0.46,-0.22,-0.42,-0.285
-0.42,-0.405,-0.36,-0.335,-0.375,-0.38,-0.435,-0.34,-0.465,-0.225,-0.44,-0.295
-0.42,-0.4,-0.35,-0.345,-0.38,-0.37,-0.43,-0.335,-0.47,-0.23,-0.445,-0.305
-0.42,-0.4,-0.36,-0.355,-0.4,-0.375,-0.44,-0.325,-0.46,-0.23,-0.43,-0.315
-0.42,-0.405,-0.37,-0.37,-0.405,-0.38,-0.445,-0.325,-0.47,-0.235,-0.435,-0.305
-0.425,-0.385,-0.37,-0.375,-0.415,-0.4,-0.455,-0.33,-0.485,-0.245,-0.425,-0.29
-0.425,-0.365,-0.365,-0.385,-0.41,-0.405,-0.455,-0.34,-0.505,-0.24,-0.43,-0.29
-0.415,-0.345,-0.37,-0.38,-0.415,-0.4,-0.45,-0.345,-0.5,-0.24,-0.44,-0.29
-0.395,-0.335,-0.38,-0.39,-0.4,-0.4,-0.44,-0.335,-0.485,-0.245,-0.445,-0.3
-0.395,-0.325,-0.39,-0.39,-0.41,-0.415,-0.435,-0.33,-0.48,-0.235,-0.43,-0.31
-0.39,-0.31,-0.385,-0.405,-0.41,-0.425,-0.455,-0.335,-0.485,-0.225,-0.43,-0.305
-0.375,-0.295,-0.38,-0.41,-0.415,-0.43,-0.465,-0.34,-0.48,-0.23,-0.44,-0.295
-0.36,-0.275,-0.37,-0.395,-0.415,-0.445,-0.455,-0.335,-0.48,-0.22,-0.44,-0.29
-0.34,-0.255,-0.37,-0.395,-0.415,-0.435,-0.44,-0.335,-0.485,-0.23,-0.445,-0.29
-0.335,-0.25,-0.365,-0.395,-0.415,-0.42,-0.44,-0.335,-0.475,-0.235,-0.455,-0.305
-0.33,-0.24,-0.365,-0.4,-0.415,-0.44,-0.44,-0.34,-0.465,-0.225,-0.435,-0.3
-0.335,-0.245,-0.39,-0.41,-0.425,-0.44,-0.44,-0.345,-0.465,-0.21,-0.435,-0.305
-0.335,-0.23,-0.375,-0.405,-0.445,-0.455,-0.46,-0.345,-0.47,-0.21,-0.425,-0.305
-0.325,-0.205,-0.37,-0.385,-0.43,-0.465,-0.455,-0.36,-0.47,-0.22,-0.425,-0.29
-0.32,-0.2,-0.355,-0.375,-0.42,-0.43,-0.45,-0.37,-0.475,-0.24,-0.435,-0.295
-0.305,-0.2,-0.365,-0.365,-0.415,-0.405,-0.43,-0.36,-0.47,-0.24,-0.45,-0.29
-0.305,-0.205,-0.36,-0.365,-0.4,-0.405,-0.435,-0.35,-0.47,-0.23,-0.43,-0.305
-0.315,-0.21,-0.37,-0.365,-0.41,-0.395,-0.455,-0.36,-0.475,-0.22,-0.42,-0.29
-0.31,-0.22,-0.35,-0.355,-0.405,-0.41,-0.475,-0.37,-0.475,-0.22,-0.42,-0.285
-0.305,-0.195,-0.34,-0.325,-0.385,-0.395,-0.475,-0.395,-0.49,-0.23,-0.425,-0.28
-0.3,-0.19,-0.325,-0.295,-0.375,-0.355,-0.47,-0.4,-0.48,-0.24,-0.445,-0.29
-0.3,-0.2,-0.32,-0.295,-0.35,-0.33,-0.46,-0.39,-0.485,-0.245,-0.44,-0.295
-0.3,-0.2,-0.315,-0.265,-0.35,-0.32,-0.47,-0.4,-0.475,-0.24,-0.435,-0.31
-0.31,-0.21,-0.325,-0.28,-0.35,-0.315,-0.465,-0.4,-0.475,-0.235,-0.425,-0.3
-0.31,-0.2,-0.31,-0.275,-0.355,-0.32,-0.485,-0.41,-0.49,-0.235,-0.43,-0.28
-0.31,-0.19,-0.295,-0.245,-0.335,-0.31,-0.49,-0.415,-0.495,-0.23,-0.435,-0.275
-0.315,-0.175,-0.285,-0.23,-0.33,-0.295,-0.465,-0.425,-0.495,-0.23,-0.435,-0.28
-0.3,-0.2,-0.29,-0.215,-0.305,-0.285,-0.46,-0.425,-0.485,-0.245,-0.43,-0.28
-0.305,-0.205,-0.29,-0.21,-0.31,-0.29,-0.46,-0.43,-0.48,-0.245,-0.41,-0.295
-0.315,-0.21,-0.275,-0.225,-0.325,-0.28,-0.475,-0.44,-0.47,-0.24,-0.42,-0.285
-0.32,-0.2,-0.27,-0.215,-0.325,-0.28,-0.49,-0.44,-0.49,-0.225,-0.415,-0.28
-0.325,-0.2,-0.265,-0.21,-0.315,-0.28,-0.5,-0.455,-0.49,-0.24,-0.42,-0.28
-0.31,-0.18,-0.26,-0.195,-0.315,-0.265,-0.495,-0.475,-0.49,-0.255,-0.44,-0.275
-0.305,-0.19,-0.26,-0.19,-0.31,-0.26,-0.485,-0.46,-0.485,-0.255,-0.43,-0.295
-0.305,-0.19,-0.275,-0.215,-0.31,-0.255,-0.47,-0.445,-0.47,-0.26,-0.42,-0.295
-0.32,-0.205,-0.275,-0.195,-0.305,-0.255,-0.485,-0.455,-0.475,-0.26,-0.42,-0.295
-0.325,-0.205,-0.285,-0.21,-0.315,-0.265,-0.5,-0.46,-0.485,-0.265,-0.415,-0.275
-0.305,-0.195,-0.26,-0.18,-0.32,-0.265,-0.5,-0.475,-0.485,-0.265,-0.43,-0.275
-0.31,-0.185,-0.26,-0.18,-0.31,-0.265,-0.49,-0.48,-0.5,-0.285,-0.44,-0.275
-0.295,-0.19,-0.265,-0.19,-0.305,-0.255,-0.475,-0.465,-0.48,-0.3,-0.435,-0.3
-0.31,-0.19,-0.27,-0.195,-0.305,-0.25,-0.475,-0.445,-0.475,-0.295,-0.425,-0.31
-0.325,-0.21,-0.28,-0.2,-0.305,-0.255,-0.465,-0.43,-0.475,-0.285,-0.425,-0.3
-0.33,-0.21,-0.275,-0.2,-0.31,-0.26,-0.48,-0.415,-0.48,-0.295,-0.425,-0.29
-0.32,-0.205,-0.255,-0.19,-0.295,-0.26,-0.455,-0.42,-0.5,-0.305,-0.41,-0.29
-0.32,-0.205,-0.255,-0.17,-0.295,-0.25,-0.445,-0.405,-0.505,-0.315,-0.425,-0.29
-0.32,-0.2,-0.245,-0.18,-0.29,-0.245,-0.425,-0.395,-0.495,-0.33,-0.43,-0.305
-0.325,-0.215,-0.255,-0.195,-0.285,-0.255,-0.41,-0.375,-0.485,-0.325,-0.425,-0.305
-0.35,-0.225,-0.26,-0.195,-0.285,-0.25,-0.405,-0.37,-0.49,-0.325,-0.405,-0.32
-0.35,-0.21,-0.255,-0.21,-0.305,-0.265,-0.42,-0.345,-0.52,-0.315,-0.415,-0.31
-0.34,-0.21,-0.255,-0.2,-0.305,-0.26,-0.42,-0.35,-0.525,-0.335,-0.415,-0.305
-0.335,-0.21,-0.26,-0.195,-0.295,-0.245,-0.4,-0.34,-0.53,-0.36,-0.42,-0.305
-0.33,-0.215,-0.265,-0.185,-0.29,-0.25,-0.375,-0.33,-0.525,-0.365,-0.43,-0.315
-0.335,-0.225,-0.28,-0.19,-0.295,-0.26,-0.36,-0.31,-0.515,-0.365,-0.42,-0.34
-0.34,-0.225,-0.295,-0.215,-0.295,-0.27,-0.36,-0.305,-0.52,-0.38,-0.42,-0.335
-0.36,-0.23,-0.29,-0.21,-0.305,-0.265,-0.375,-0.305,-0.54,-0.36,-0.425,-0.325
-0.35,-0.21,-0.275,-0.21,-0.305,-0.265,-0.36,-0.305,-0.535,-0.375,-0.43,-0.335
-0.35,-0.21,-0.28,-0.2,-0.3,-0.255,-0.345,-0.285,-0.54,-0.39,-0.435,-0.345
-0.355,-0.23,-0.28,-0.205,-0.3,-0.24,-0.325,-0.285,-0.535,-0.385,-0.445,-0.36
-0.36,-0.25,-0.28,-0.215,-0.3,-0.26,-0.325,-0.26,-0.525,-0.38,-0.445,-0.37
-0.355,-0.25,-0.285,-0.215,-0.32,-0.27,-0.34,-0.27,-0.53,-0.36,-0.44,-0.375
-0.365,-0.245,-0.285,-0.225,-0.32,-0.28,-0.345,-0.285,-0.53,-0.355,-0.44,-0.37
-0.355,-0.23,-0.28,-0.215,-0.325,-0.29,-0.36,-0.29,-0.52,-0.35,-0.45,-0.375
-0.35,-0.215,-0.27,-0.195,-0.32,-0.27,-0.355,-0.305,-0.51,-0.35,-0.46,-0.39
-0.34,-0.23,-0.285,-0.205,-0.32,-0.26,-0.355,-0.295,-0.5,-0.345,-0.465,-0.41
-0.355,-0.24,-0.3,-0.22,-0.305,-0.265,-0.355,-0.29,-0.475,-0.33,-0.455,-0.415
-0.35,-0.245,-0.31,-0.24,-0.325,-0.275,-0.365,-0.275,-0.48,-0.305,-0.45,-0.415
-0.365,-0.245,-0.3,-0.24,-0.32,-0.285,-0.36,-0.265,-0.475,-0.29,-0.445,-0.42
-0.365,-0.24,-0.29,-0.22,-0.315,-0.295,-0.355,-0.29,-0.475,-0.285,-0.465,-0.405
-0.35,-0.215,-0.28,-0.21,-0.32,-0.285,-0.33,-0.29,-0.465,-0.29,-0.465,-0.425
-0.355,-0.225,-0.3,-0.215,-0.31,-0.285,-0.335,-0.28,-0.45,-0.29,-0.47,-0.43
-0.35,-0.24,-0.29,-0.215,-0.315,-0.28,-0.35,-0.27,-0.44,-0.26,-0.48,-0.445
-0.37,-0.24,-0.31,-0.22,-0.31,-0.29,-0.345,-0.265,-0.43,-0.25,-0.46,-0.44
-0.38,-0.245,-0.3,-0.235,-0.315,-0.295,-0.36,-0.275,-0.42,-0.235,-0.45,-0.43
-0.37,-0.24,-0.295,-0.225,-0.315,-0.29,-0.355,-0.29,-0.42,-0.23,-0.46,-0.425
-0.36,-0.23,-0.29,-0.22,-0.315,-0.28,-0.37,-0.29,-0.425,-0.22,-0.47,-0.415
-0.365,-0.235,-0.285,-0.225,-0.305,-0.265,-0.34,-0.285,-0.4,-0.215,-0.475,-0.42
-0.36,-0.24,-0.295,-0.23,-0.31,-0.285,-0.335,-0.265,-0.385,-0.2,-0.455,-0.425
-0.365,-0.23,-0.325,-0.235,-0.315,-0.285,-0.335,-0.28,-0.385,-0.185,-0.44,-0.415
-0.38,-0.25,-0.315,-0.245,-0.325,-0.3,-0.345,-0.28,-0.385,-0.185,-0.445,-0.39
-0.37,-0.225,-0.31,-0.225,-0.33,-0.305,-0.35,-0.3,-0.39,-0.18,-0.435,-0.375
-0.365,-0.215,-0.305,-0.22,-0.33,-0.295,-0.35,-0.3,-0.375,-0.185,-0.45,-0.355
-0.35,-0.23,-0.3,-0.23,-0.325,-0.28,-0.34,-0.285,-0.375,-0.19,-0.445,-0.35
-0.35,-0.24,-0.315,-0.245,-0.325,-0.28,-0.345,-0.275,-0.37,-0.18,-0.405,-0.34
-0.35,-0.25,-0.33,-0.26,-0.33,-0.29,-0.36,-0.285,-0.36,-0.16,-0.395,-0.325
-0.37,-0.265,-0.32,-0.26,-0.35,-0.305,-0.365,-0.3,-0.37,-0.155,-0.385,-0.31
-0.365,-0.23,-0.32,-0.25,-0.35,-0.305,-0.36,-0.3,-0.375,-0.16,-0.38,-0.3
-0.345,-0.22,-0.315,-0.23,-0.33,-0.295,-0.35,-0.3,-0.37,-0.165,-0.375,-0.285
-0.345,-0.235,-0.32,-0.24,-0.325,-0.28,-0.35,-0.285,-0.355,-0.18,-0.375,-0.275
-0.34,-0.225,-0.325,-0.245,-0.33,-0.295,-0.35,-0.275,-0.345,-0.17,-0.36,-0.275
-0.355,-0.235,-0.335,-0.25,-0.35,-0.295,-0.365,-0.29,-0.35,-0.155,-0.345,-0.26
-0.365,-0.235,-0.33,-0.25,-0.36,-0.305,-0.38,-0.3,-0.35,-0.15,-0.34,-0.235
-0.36,-0.225,-0.325,-0.24,-0.35,-0.305,-0.375,-0.31,-0.365,-0.155,-0.325,-0.225
-0.355,-0.225,-0.31,-0.235,-0.34,-0.305,-0.37,-0.305,-0.365,-0.165,-0.33,-0.24
-0.355,-0.215,-0.315,-0.245,-0.33,-0.28,-0.37,-0.28,-0.36,-0.18,-0.33,-0.24
-0.355,-0.225,-0.315,-0.24,-0.33,-0.29,-0.365,-0.275,-0.355,-0.165,-0.325,-0.235
-0.375,-0.235,-0.335,-0.255,-0.33,-0.295,-0.365,-0.285,-0.36,-0.155,-0.31,-0.22
-0.385,-0.23,-0.32,-0.255,-0.35,-0.3,-0.375,-0.295,-0.37,-0.155,-0.31,-0.21
-0.355,-0.225,-0.31,-0.25,-0.35,-0.31,-0.38,-0.3,-0.375,-0.155,-0.305,-0.2
-0.36,-0.225,-0.315,-0.25,-0.34,-0.295,-0.375,-0.305,-0.375,-0.17,-0.32,-0.2
-0.355,-0.225,-0.31,-0.25,-0.325,-0.285,-0.37,-0.29,-0.375,-0.17,-0.32,-0.21
-0.36,-0.225,-0.32,-0.26,-0.32,-0.29,-0.375,-0.295,-0.36,-0.17,-0.315,-0.225
-0.36,-0.23,-0.335,-0.26,-0.33,-0.305,-0.39,-0.305,-0.37,-0.16,-0.3,-0.225
-0.37,-0.23,-0.325,-0.25,-0.335,-0.29,-0.41,-0.31,-0.38,-0.16,-0.31,-0.21
-0.36,-0.215,-0.325,-0.245,-0.35,-0.295,-0.4,-0.325,-0.4,-0.16,-0.32,-0.2
-0.345,-0.21,-0.315,-0.23,-0.34,-0.275,-0.39,-0.315,-0.4,-0.165,-0.33,-0.22
-0.355,-0.225,-0.31,-0.235,-0.345,-0.27,-0.365,-0.305,-0.39,-0.185,-0.33,-0.22
-0.345,-0.24,-0.32,-0.24,-0.34,-0.285,-0.37,-0.29,-0.38,-0.17,-0.32,-0.23
-0.345,-0.235,-0.33,-0.24,-0.33,-0.3,-0.375,-0.3,-0.38,-0.16,-0.32,-0.225
-0.345,-0.24,-0.32,-0.25,-0.335,-0.3,-0.39,-0.3,-0.375,-0.155,-0.315,-0.21
-0.34,-0.225,-0.32,-0.24,-0.34,-0.31,-0.385,-0.305,-0.385,-0.16,-0.32,-0.205
-0.31,-0.215,-0.31,-0.24,-0.32,-0.3,-0.375,-0.32,-0.385,-0.16,-0.325,-0.21
-0.305,-0.22,-0.33,-0.26,-0.325,-0.285,-0.365,-0.31,-0.375,-0.17,-0.33,-0.23
-0.305,-0.22,-0.33,-0.255,-0.33,-0.285,-0.375,-0.3,-0.365,-0.165,-0.33,-0.235
-0.31,-0.23,-0.345,-0.27,-0.35,-0.29,-0.395,-0.3,-0.36,-0.17,-0.325,-0.235
-0.305,-0.23,-0.34,-0.27,-0.35,-0.295,-0.405,-0.315,-0.37,-0.16,-0.325,-0.21
-0.29,-0.205,-0.33,-0.255,-0.335,-0.3,-0.405,-0.315,-0.39,-0.15,-0.33,-0.22
-0.285,-0.2,-0.32,-0.255,-0.32,-0.29,-0.395,-0.32,-0.385,-0.165,-0.35,-0.22
-0.275,-0.205,-0.315,-0.24,-0.31,-0.285,-0.39,-0.305,-0.38,-0.18,-0.34,-0.23
-0.28,-0.195,-0.335,-0.245,-0.305,-0.285,-0.4,-0.295,-0.375,-0.17,-0.335,-0.24
-0.28,-0.21,-0.335,-0.24,-0.295,-0.29,-0.4,-0.305,-0.37,-0.155,-0.335,-0.235
-0.275,-0.205,-0.33,-0.24,-0.295,-0.295,-0.4,-0.31,-0.39,-0.16,-0.33,-0.235
-0.265,-0.19,-0.31,-0.245,-0.275,-0.295,-0.405,-0.32,-0.4,-0.165,-0.33,-0.22
-0.255,-0.185,-0.31,-0.235,-0.27,-0.29,-0.405,-0.315,-0.405,-0.17,-0.335,-0.225
-0.245,-0.2,-0.315,-0.235,-0.255,-0.28,-0.39,-0.305,-0.395,-0.185,-0.345,-0.235
-0.26,-0.195,-0.33,-0.245,-0.265,-0.29,-0.39,-0.29,-0.38,-0.175,-0.335,-0.235
-0.265,-0.2,-0.32,-0.27,-0.25,-0.27,-0.395,-0.295,-0.385,-0.155,-0.32,-0.24
-0.275,-0.19,-0.315,-0.26,-0.25,-0.29,-0.4,-0.295,-0.39,-0.165,-0.32,-0.225
-0.28,-0.17,-0.3,-0.25,-0.25,-0.275,-0.41,-0.31,-0.395,-0.16,-0.335,-0.24
-0.265,-0.14,-0.285,-0.25,-0.225,-0.26,-0.4,-0.32,-0.405,-0.175,-0.335,-0.24
-0.27,-0.165,-0.28,-0.255,-0.22,-0.255,-0.385,-0.31,-0.39,-0.185,-0.355,-0.24
-0.275,-0.165,-0.265,-0.25,-0.22,-0.26,-0.375,-0.3,-0.39,-0.175,-0.34,-0.25
-0.28,-0.185,-0.26,-0.27,-0.23,-0.28,-0.395,-0.285,-0.405,-0.165,-0.335,-0.255
-0.275,-0.18,-0.265,-0.27,-0.25,-0.28,-0.395,-0.295,-0.4,-0.17,-0.345,-0.24
-0.28,-0.17,-0.26,-0.25,-0.25,-0.285,-0.395,-0.305,-0.4,-0.17,-0.35,-0.24
-0.275,-0.15,-0.255,-0.23,-0.25,-0.27,-0.385,-0.315,-0.405,-0.18,-0.36,-0.245
-0.265,-0.165,-0.26,-0.235,-0.235,-0.24,-0.38,-0.295,-0.4,-0.175,-0.36,-0.255
-0.255,-0.18,-0.25,-0.24,-0.23,-0.23,-0.385,-0.295,-0.395,-0.165,-0.365,-0.26
-0.24,-0.2,-0.255,-0.235,-0.245,-0.235,-0.38,-0.285,-0.395,-0.17,-0.355,-0.245
-0.26,-0.21,-0.24,-0.235,-0.24,-0.245,-0.38,-0.28,-0.405,-0.175,-0.34,-0.24
-0.28,-0.21,-0.23,-0.23,-0.235,-0.24,-0.38,-0.3,-0.415,-0.175,-0.355,-0.245
-0.31,-0.185,-0.205,-0.225,-0.235,-0.23,-0.37,-0.305,-0.41,-0.175,-0.375,-0.24
-0.31,-0.19,-0.21,-0.215,-0.23,-0.23,-0.38,-0.3,-0.41,-0.19,-0.365,-0.26
-0.345,-0.2,-0.225,-0.235,-0.255,-0.23,-0.37,-0.29,-0.4,-0.18,-0.365,-0.27
-0.36,-0.215,-0.235,-0.225,-0.26,-0.24,-0.38,-0.295,-0.4,-0.165,-0.355,-0.275
-0.38,-0.22,-0.225,-0.22,-0.275,-0.265,-0.385,-0.295,-0.4,-0.17,-0.36,-0.25
-0.385,-0.21,-0.225,-0.205,-0.265,-0.26,-0.4,-0.305,-0.415,-0.175,-0.35,-0.245
-0.38,-0.195,-0.23,-0.205,-0.255,-0.245,-0.375,-0.31,-0.41,-0.19,-0.36,-0.25
-0.37,-0.205,-0.225,-0.205,-0.23,-0.25,-0.365,-0.295,-0.4,-0.175,-0.375,-0.25
-0.375,-0.22,-0.24,-0.205,-0.225,-0.265,-0.345,-0.285,-0.385,-0.175,-0.365,-0.255
-0.385,-0.225,-0.24,-0.21,-0.24,-0.295,-0.355,-0.3,-0.395,-0.16,-0.36,-0.26
-0.39,-0.23,-0.23,-0.225,-0.27,-0.29,-0.35,-0.3,-0.4,-0.15,-0.365,-0.25
-0.395,-0.22,-0.235,-0.21,-0.285,-0.295,-0.35,-0.295,-0.415,-0.155,-0.36,-0.26
-0.385,-0.21,-0.25,-0.195,-0.295,-0.28,-0.33,-0.305,-0.405,-0.175,-0.365,-0.255
-0.385,-0.21,-0.25,-0.2,-0.305,-0.285,-0.315,-0.29,-0.4,-0.165,-0.355,-0.27
-0.385,-0.23,-0.255,-0.215,-0.32,-0.28,-0.31,-0.285,-0.385,-0.18,-0.355,-0.275
-0.395,-0.235,-0.235,-0.235,-0.355,-0.29,-0.305,-0.285,-0.385,-0.16,-0.345,-0.265
-0.405,-0.23,-0.22,-0.23,-0.365,-0.32,-0.315,-0.27,-0.39,-0.155,-0.34,-0.25
-0.4,-0.225,-0.205,-0.225,-0.36,-0.31,-0.315,-0.28,-0.395,-0.155,-0.35,-0.25
-0.375,-0.215,-0.215,-0.225,-0.365,-0.305,-0.3,-0.28,-0.4,-0.165,-0.36,-0.25
-0.375,-0.22,-0.24,-0.245,-0.355,-0.295,-0.275,-0.26,-0.39,-0.165,-0.365,-0.26
-0.39,-0.22,-0.265,-0.25,-0.355,-0.295,-0.28,-0.255,-0.385,-0.165,-0.355,-0.27
-0.395,-0.23,-0.28,-0.26,-0.36,-0.295,-0.285,-0.26,-0.385,-0.155,-0.345,-0.275
-0.415,-0.24,-0.28,-0.265,-0.365,-0.295,-0.29,-0.255,-0.395,-0.16,-0.365,-0.265
-0.405,-0.22,-0.27,-0.23,-0.365,-0.3,-0.285,-0.265,-0.4,-0.16,-0.36,-0.255
-0.4,-0.225,-0.27,-0.235,-0.355,-0.3,-0.27,-0.255,-0.4,-0.17,-0.37,-0.25
-0.39,-0.235,-0.29,-0.24,-0.345,-0.29,-0.27,-0.25,-0.395,-0.175,-0.365,-0.255
-0.405,-0.25,-0.32,-0.25,-0.355,-0.305,-0.275,-0.245,-0.4,-0.165,-0.375,-0.265
-0.425,-0.28,-0.335,-0.28,-0.37,-0.305,-0.275,-0.245,-0.4,-0.145,-0.36,-0.26
-0.46,-0.305,-0.34,-0.27,-0.385,-0.32,-0.285,-0.255,-0.41,-0.145,-0.37,-0.255
-0.475,-0.325,-0.33,-0.265,-0.37,-0.305,-0.29,-0.255,-0.405,-0.135,-0.365,-0.25
-0.505,-0.345,-0.33,-0.255,-0.35,-0.295,-0.295,-0.265,-0.405,-0.165,-0.375,-0.245
-0.51,-0.375,-0.335,-0.265,-0.35,-0.29,-0.285,-0.25,-0.39,-0.18,-0.38,-0.27
-0.525,-0.415,-0.35,-0.275,-0.345,-0.285,-0.285,-0.24,-0.39,-0.15,-0.37,-0.27
-0.54,-0.425,-0.36,-0.28,-0.36,-0.29,-0.285,-0.235,-0.385,-0.16,-0.365,-0.26
-0.6,-0.385,-0.35,-0.29,-0.37,-0.305,-0.3,-0.225,-0.385,-0.15,-0.365,-0.245
-0.645,-0.295,-0.35,-0.275,-0.37,-0.305,-0.3,-0.245,-0.4,-0.15,-0.36,-0.245
-0.63,-0.18,-0.345,-0.265,-0.36,-0.3,-0.295,-0.24,-0.38,-0.165,-0.37,-0.255
-0.575,-0.065,-0.35,-0.27,-0.345,-0.29,-0.29,-0.245,-0.38,-0.17,-0.37,-0.25
-0.495,0.035,-0.355,-0.27,-0.36,-0.315,-0.27,-0.24,-0.345,-0.165,-0.37,-0.27
-0.385,0.13,-0.365,-0.28,-0.365,-0.315,-0.27,-0.25,-0.34,-0.155,-0.37,-0.26
-0.27,0.24,-0.36,-0.28,-0.385,-0.33,-0.285,-0.245,-0.33,-0.155,-0.36,-0.25
-0.115,0.37,-0.355,-0.27,-0.39,-0.345,-0.3,-0.26,-0.325,-0.15,-0.36,-0.24
0.09,0.495,-0.35,-0.265,-0.405,-0.355,-0.315,-0.265,-0.32,-0.17,-0.37,-0.245
0.37,0.61,-0.34,-0.28,-0.43,-0.375,-0.32,-0.25,-0.315,-0.165,-0.365,-0.26
0.635,0.655,-0.36,-0.285,-0.45,-0.4,-0.33,-0.245,-0.31,-0.165,-0.35,-0.255
0.81,0.545,-0.37,-0.295,-0.47,-0.43,-0.36,-0.26,-0.31,-0.145,-0.345,-0.26
0.86,0.23,-0.37,-0.295,-0.515,-0.44,-0.39,-0.27,-0.31,-0.145,-0.34,-0.245
0.77,-0.105,-0.355,-0.28,-0.55,-0.405,-0.395,-0.285,-0.315,-0.145,-0.335,-0.24
0.475,-0.28,-0.345,-0.265,-0.565,-0.32,-0.415,-0.29,-0.305,-0.15,-0.34,-0.255
0.065,-0.285,-0.35,-0.28,-0.505,-0.215,-0.395,-0.285,-0.275,-0.145,-0.315,-0.26
-0.305,-0.255,-0.37,-0.3,-0.42,-0.115,-0.4,-0.27,-0.28,-0.145,-0.3,-0.26
-0.5,-0.255,-0.385,-0.325,-0.295,-0.055,-0.395,-0.27,-0.275,-0.13,-0.285,-0.25
-0.52,-0.26,-0.41,-0.355,-0.13,0,-0.405,-0.28,-0.27,-0.13,-0.285,-0.245
-0.475,-0.23,-0.44,-0.36,0.08,0.085,-0.415,-0.29,-0.285,-0.12,-0.29,-0.245
-0.41,-0.22,-0.46,-0.355,0.36,0.225,-0.4,-0.295,-0.295,-0.135,-0.3,-0.25
-0.39,-0.245,-0.49,-0.385,0.62,0.355,-0.405,-0.285,-0.295,-0.135,-0.3,-0.245
-0.39,-0.255,-0.54,-0.4,0.835,0.43,-0.4,-0.275,-0.285,-0.125,-0.285,-0.25
-0.4,-0.26,-0.565,-0.355,0.92,0.355,-0.405,-0.27,-0.29,-0.12,-0.275,-0.225
-0.41,-0.25,-0.55,-0.27,0.83,0.06,-0.405,-0.275,-0.31,-0.105,-0.26,-0.22
-0.405,-0.235,-0.485,-0.17,0.545,-0.275,-0.41,-0.3,-0.32,-0.1,-0.26,-0.205
-0.385,-0.245,-0.365,-0.075,0.16,-0.465,-0.405,-0.295,-0.31,-0.11,-0.265,-0.21
-0.39,-0.245,-0.255,-0.01,-0.18,-0.465,-0.4,-0.275,-0.3,-0.1,-0.27,-0.215
-0.395,-0.26,-0.125,0.05,-0.395,-0.43,-0.41,-0.28,-0.285,-0.105,-0.265,-0.22
-0.405,-0.265,0.09,0.135,-0.49,-0.385,-0.42,-0.285,-0.3,-0.09,-0.255,-0.22
-0.41,-0.265,0.36,0.255,-0.515,-0.375,-0.43,-0.28,-0.315,-0.1,-0.26,-0.2
-0.405,-0.26,0.6,0.36,-0.47,-0.36,-0.425,-0.29,-0.31,-0.09,-0.265,-0.195
-0.4,-0.24,0.75,0.39,-0.425,-0.35,-0.42,-0.29,-0.29,-0.105,-0.28,-0.195
-0.39,-0.245,0.795,0.275,-0.41,-0.355,-0.405,-0.285,-0.275,-0.115,-0.295,-0.185
-0.395,-0.26,0.7,0.04,-0.41,-0.35,-0.42,-0.28,-0.26,-0.125,-0.275,-0.2
-0.41,-0.27,0.44,-0.225,-0.415,-0.355,-0.415,-0.27,-0.28,-0.125,-0.28,-0.185
-0.415,-0.27,0.095,-0.4,-0.41,-0.35,-0.435,-0.285,-0.32,-0.125,-0.27,-0.185
-0.41,-0.255,-0.185,-0.41,-0.405,-0.355,-0.445,-0.31,-0.33,-0.125,-0.29,-0.18
-0.395,-0.255,-0.37,-0.36,-0.395,-0.345,-0.47,-0.33,-0.35,-0.13,-0.285,-0.18
-0.405,-0.25,-0.47,-0.345,-0.395,-0.33,-0.5,-0.345,-0.35,-0.135,-0.275,-0.19
-0.41,-0.265,-0.49,-0.34,-0.395,-0.33,-0.52,-0.345,-0.355,-0.15,-0.25,-0.195
-0.405,-0.27,-0.47,-0.345,-0.405,-0.345,-0.545,-0.365,-0.375,-0.13,-0.225,-0.21
-0.405,-0.27,-0.44,-0.345,-0.41,-0.345,-0.595,-0.395,-0.385,-0.135,-0.255,-0.2
-0.41,-0.265,-0.425,-0.33,-0.4,-0.35,-0.625,-0.39,-0.4,-0.14,-0.285,-0.21
-0.39,-0.25,-0.41,-0.305,-0.405,-0.335,-0.59,-0.33,-0.43,-0.145,-0.305,-0.205
-0.385,-0.245,-0.41,-0.315,-0.395,-0.315,-0.49,-0.21,-0.415,-0.155,-0.32,-0.22
-0.39,-0.265,-0.41,-0.315,-0.4,-0.325,-0.34,-0.075,-0.395,-0.15,-0.34,-0.22
-0.395,-0.27,-0.42,-0.325,-0.41,-0.325,-0.195,0.01,-0.385,-0.135,-0.34,-0.22
-0.4,-0.26,-0.4,-0.335,-0.42,-0.335,-0.015,0.075,-0.405,-0.155,-0.365,-0.205
-0.4,-0.255,-0.395,-0.33,-0.415,-0.345,0.245,0.155,-0.415,-0.16,-0.375,-0.215
-0.4,-0.245,-0.405,-0.31,-0.415,-0.32,0.52,0.255,-0.41,-0.155,-0.4,-0.22
-0.395,-0.25,-0.41,-0.315,-0.405,-0.325,0.745,0.385,-0.41,-0.17,-0.4,-0.245
-0.395,-0.26,-0.405,-0.32,-0.41,-0.33,0.885,0.49,-0.4,-0.16,-0.39,-0.24
-0.405,-0.27,-0.42,-0.32,-0.43,-0.32,0.88,0.475,-0.4,-0.15,-0.39,-0.24
-0.405,-0.26,-0.395,-0.32,-0.445,-0.345,0.68,0.28,-0.41,-0.145,-0.38,-0.23
-0.4,-0.255,-0.395,-0.32,-0.445,-0.34,0.325,-0.04,-0.405,-0.155,-0.385,-0.225
-0.395,-0.25,-0.39,-0.31,-0.425,-0.33,-0.08,-0.325,-0.415,-0.16,-0.395,-0.235
-0.385,-0.255,-0.395,-0.325,-0.415,-0.315,-0.355,-0.42,-0.4,-0.16,-0.4,-0.25
-0.375,-0.255,-0.395,-0.33,-0.42,-0.325,-0.5,-0.39,-0.395,-0.17,-0.405,-0.245
-0.385,-0.275,-0.41,-0.345,-0.42,-0.335,-0.55,-0.35,-0.4,-0.16,-0.395,-0.255
-0.395,-0.27,-0.4,-0.34,-0.425,-0.34,-0.535,-0.335,-0.405,-0.155,-0.39,-0.235
-0.39,-0.265,-0.4,-0.32,-0.42,-0.34,-0.485,-0.33,-0.41,-0.145,-0.385,-0.235
-0.385,-0.26,-0.41,-0.31,-0.425,-0.315,-0.455,-0.315,-0.405,-0.155,-0.405,-0.235
-0.375,-0.26,-0.4,-0.31,-0.41,-0.31,-0.44,-0.29,-0.395,-0.155,-0.41,-0.245
-0.385,-0.275,-0.405,-0.32,-0.415,-0.325,-0.445,-0.28,-0.395,-0.15,-0.4,-0.255
-0.395,-0.27,-0.41,-0.325,-0.435,-0.34,-0.44,-0.285,-0.4,-0.155,-0.4,-0.25
-0.395,-0.26,-0.41,-0.325,-0.44,-0.34,-0.445,-0.295,-0.405,-0.16,-0.395,-0.24
-0.385,-0.245,-0.4,-0.315,-0.435,-0.34,-0.44,-0.305,-0.41,-0.16,-0.395,-0.24
-0.375,-0.255,-0.39,-0.31,-0.415,-0.33,-0.43,-0.29,-0.42,-0.165,-0.405,-0.245
-0.375,-0.265,-0.39,-0.31,-0.415,-0.32,-0.425,-0.295,-0.42,-0.175,-0.4,-0.245
-0.385,-0.265,-0.4,-0.315,-0.41,-0.315,-0.415,-0.295,-0.415,-0.195,-0.395,-0.245
-0.395,-0.27,-0.4,-0.33,-0.41,-0.31,-0.435,-0.285,-0.48,-0.21,-0.39,-0.25
-0.39,-0.265,-0.395,-0.32,-0.42,-0.325,-0.45,-0.295,-0.52,-0.23,-0.405,-0.24
-0.39,-0.26,-0.39,-0.315,-0.43,-0.33,-0.445,-0.305,-0.54,-0.25,-0.42,-0.245
-0.365,-0.27,-0.385,-0.29,-0.435,-0.315,-0.43,-0.295,-0.545,-0.275,-0.435,-0.265
-0.375,-0.265,-0.39,-0.305,-0.425,-0.31,-0.425,-0.285,-0.55,-0.315,-0.455,-0.295
-0.385,-0.27,-0.41,-0.305,-0.42,-0.31,-0.43,-0.265,-0.595,-0.31,-0.485,-0.33
-0.395,-0.28,-0.41,-0.32,-0.42,-0.34,-0.44,-0.28,-0.615,-0.285,-0.5,-0.335
-0.38,-0.285,-0.41,-0.32,-0.425,-0.345,-0.46,-0.28,-0.59,-0.2,-0.505,-0.34
-0.385,-0.28,-0.415,-0.325,-0.425,-0.345,-0.455,-0.3,-0.49,-0.075,-0.52,-0.355
-0.375,-0.285,-0.41,-0.32,-0.425,-0.335,-0.46,-0.3,-0.345,0.05,-0.535,-0.38
-0.38,-0.29,-0.405,-0.315,-0.42,-0.32,-0.455,-0.29,-0.19,0.165,-0.555,-0.42
-0.39,-0.31,-0.42,-0.32,-0.425,-0.32,-0.44,-0.275,0.01,0.275,-0.585,-0.415
-0.38,-0.305,-0.42,-0.325,-0.425,-0.31,-0.45,-0.255,0.25,0.41,-0.58,-0.33
-0.375,-0.3,-0.42,-0.33,-0.425,-0.325,-0.455,-0.27,0.515,0.53,-0.53,-0.21
-0.375,-0.3,-0.415,-0.315,-0.42,-0.33,-0.46,-0.285,0.725,0.645,-0.415,-0.07
-0.375,-0.31,-0.41,-0.31,-0.415,-0.33,-0.45,-0.285,0.85,0.735,-0.285,0.055
-0.375,-0.325,-0.415,-0.315,-0.415,-0.325,-0.435,-0.285,0.875,0.705,-0.12,0.17
-0.38,-0.34,-0.425,-0.33,-0.415,-0.33,-0.43,-0.28,0.69,0.5,0.08,0.27
-0.39,-0.34,-0.425,-0.34,-0.42,-0.34,-0.44,-0.27,0.32,0.15,0.32,0.41
-0.39,-0.325,-0.42,-0.335,-0.43,-0.335,-0.46,-0.27,-0.11,-0.145,0.575,0.555
-0.365,-0.32,-0.425,-0.315,-0.425,-0.34,-0.46,-0.285,-0.405,-0.26,0.755,0.675
-0.37,-0.355,-0.42,-0.305,-0.42,-0.335,-0.45,-0.285,-0.53,-0.225,0.805,0.705
-0.375,-0.36,-0.41,-0.32,-0.415,-0.32,-0.44,-0.275,-0.515,-0.205,0.72,0.505
-0.385,-0.38,-0.41,-0.325,-0.42,-0.325,-0.435,-0.27,-0.455,-0.2,0.47,0.145
-0.39,-0.385,-0.415,-0.32,-0.42,-0.34,-0.435,-0.265,-0.43,-0.19,0.12,-0.18
-0.39,-0.375,-0.41,-0.325,-0.43,-0.355,-0.44,-0.28,-0.42,-0.18,-0.21,-0.29
-0.375,-0.365,-0.41,-0.33,-0.42,-0.36,-0.44,-0.275,-0.42,-0.185,-0.425,-0.285
-0.365,-0.375,-0.4,-0.32,-0.42,-0.35,-0.425,-0.285,-0.44,-0.195,-0.485,-0.265
-0.385,-0.385,-0.405,-0.31,-0.41,-0.345,-0.425,-0.27,-0.43,-0.21,-0.475,-0.27
-0.38,-0.39,-0.405,-0.325,-0.405,-0.355,-0.43,-0.26,-0.43,-0.21,-0.435,-0.285
-0.39,-0.395,-0.425,-0.325,-0.425,-0.37,-0.435,-0.26,-0.425,-0.185,-0.41,-0.275
-0.375,-0.385,-0.42,-0.33,-0.435,-0.365,-0.445,-0.27,-0.43,-0.195,-0.405,-0.27
-0.375,-0.375,-0.41,-0.325,-0.44,-0.39,-0.445,-0.295,-0.445,-0.205,-0.435,-0.27
-0.365,-0.375,-0.4,-0.33,-0.42,-0.375,-0.44,-0.29,-0.45,-0.21,-0.425,-0.275
-0.37,-0.375,-0.405,-0.33,-0.415,-0.37,-0.435,-0.285,-0.44,-0.21,-0.43,-0.285
-0.385,-0.38,-0.415,-0.335,-0.43,-0.375,-0.455,-0.265,-0.42,-0.2,-0.42,-0.29
-0.395,-0.365,-0.42,-0.335,-0.44,-0.39,-0.44,-0.255,-0.425,-0.19,-0.415,-0.285
-0.385,-0.345,-0.41,-0.345,-0.45,-0.415,-0.455,-0.27,-0.435,-0.18,-0.425,-0.28
-0.385,-0.335,-0.41,-0.335,-0.45,-0.415,-0.445,-0.28,-0.43,-0.195,-0.435,-0.28
-0.37,-0.315,-0.4,-0.34,-0.445,-0.41,-0.45,-0.285,-0.445,-0.215,-0.445,-0.285
-0.365,-0.31,-0.41,-0.345,-0.445,-0.41,-0.44,-0.285,-0.43,-0.22,-0.445,-0.305
-0.37,-0.305,-0.415,-0.35,-0.445,-0.425,-0.44,-0.27,-0.415,-0.2,-0.445,-0.31
-0.375,-0.29,-0.42,-0.36,-0.465,-0.44,-0.445,-0.27,-0.425,-0.19,-0.44,-0.29
-0.35,-0.27,-0.41,-0.38,-0.475,-0.45,-0.45,-0.275,-0.42,-0.185,-0.425,-0.29
-0.335,-0.255,-0.4,-0.365,-0.49,-0.455,-0.445,-0.275,-0.44,-0.19,-0.43,-0.27
-0.32,-0.25,-0.39,-0.36,-0.48,-0.44,-0.435,-0.275,-0.445,-0.21,-0.44,-0.275
-0.315,-0.245,-0.4,-0.37,-0.475,-0.445,-0.43,-0.275,-0.43,-0.21,-0.435,-0.29
-0.32,-0.235,-0.415,-0.38,-0.48,-0.45,-0.425,-0.27,-0.42,-0.215,-0.435,-0.3
-0.325,-0.235,-0.42,-0.405,-0.485,-0.465,-0.43,-0.265,-0.42,-0.2,-0.44,-0.295
-0.315,-0.225,-0.415,-0.425,-0.49,-0.475,-0.44,-0.285,-0.425,-0.205,-0.44,-0.295
-0.295,-0.22,-0.415,-0.42,-0.485,-0.47,-0.435,-0.295,-0.43,-0.2,-0.44,-0.285
-0.285,-0.195,-0.4,-0.405,-0.475,-0.46,-0.425,-0.295,-0.445,-0.205,-0.45,-0.275
-0.3,-0.215,-0.415,-0.41,-0.455,-0.44,-0.43,-0.295,-0.42,-0.205,-0.46,-0.29
-0.295,-0.23,-0.43,-0.425,-0.465,-0.445,-0.415,-0.29,-0.405,-0.205,-0.44,-0.3
-0.285,-0.215,-0.45,-0.44,-0.46,-0.44,-0.435,-0.285,-0.42,-0.185,-0.425,-0.285
-0.285,-0.205,-0.44,-0.445,-0.47,-0.445,-0.45,-0.3,-0.43,-0.195,-0.425,-0.285
-0.28,-0.195,-0.44,-0.44,-0.455,-0.43,-0.44,-0.3,-0.44,-0.205,-0.425,-0.28
-0.27,-0.2,-0.435,-0.43,-0.45,-0.4,-0.43,-0.305,-0.445,-0.205,-0.43,-0.29
-0.28,-0.195,-0.435,-0.43,-0.435,-0.39,-0.425,-0.3,-0.43,-0.205,-0.44,-0.285
-0.29,-0.195,-0.44,-0.44,-0.43,-0.37,-0.42,-0.295,-0.415,-0.2,-0.435,-0.295
-0.295,-0.205,-0.45,-0.45,-0.43,-0.365,-0.435,-0.31,-0.43,-0.19,-0.425,-0.285
-0.295,-0.195,-0.435,-0.465,-0.42,-0.355,-0.445,-0.315,-0.44,-0.185,-0.42,-0.275
-0.29,-0.18,-0.44,-0.44,-0.415,-0.355,-0.44,-0.33,-0.44,-0.19,-0.44,-0.265
-0.28,-0.19,-0.43,-0.435,-0.39,-0.335,-0.435,-0.33,-0.44,-0.215,-0.435,-0.275
-0.29,-0.205,-0.44,-0.445,-0.385,-0.315,-0.43,-0.34,-0.43,-0.22,-0.44,-0.29
-0.295,-0.21,-0.445,-0.465,-0.375,-0.305,-0.44,-0.33,-0.43,-0.205,-0.445,-0.29
-0.31,-0.205,-0.445,-0.45,-0.375,-0.3,-0.455,-0.33,-0.42,-0.185,-0.435,-0.275
-0.295,-0.18,-0.44,-0.445,-0.375,-0.285,-0.46,-0.355,-0.43,-0.195,-0.435,-0.275
-0.285,-0.185,-0.435,-0.42,-0.36,-0.285,-0.47,-0.36,-0.44,-0.2,-0.44,-0.285
-0.28,-0.19,-0.42,-0.4,-0.345,-0.27,-0.455,-0.37,-0.45,-0.205,-0.45,-0.27
-0.275,-0.205,-0.415,-0.385,-0.335,-0.255,-0.455,-0.38,-0.44,-0.22,-0.455,-0.28
-0.295,-0.215,-0.41,-0.38,-0.33,-0.25,-0.465,-0.365,-0.42,-0.215,-0.44,-0.305
-0.305,-0.215,-0.405,-0.38,-0.345,-0.26,-0.47,-0.38,-0.425,-0.205,-0.435,-0.295
-0.3,-0.215,-0.38,-0.375,-0.34,-0.265,-0.485,-0.38,-0.42,-0.2,-0.43,-0.285
-0.295,-0.19,-0.375,-0.365,-0.335,-0.265,-0.485,-0.4,-0.43,-0.21,-0.435,-0.275
-0.295,-0.21,-0.37,-0.345,-0.33,-0.255,-0.475,-0.41,-0.44,-0.22,-0.435,-0.275
-0.285,-0.2,-0.37,-0.34,-0.325,-0.22,-0.475,-0.405,-0.425,-0.22,-0.44,-0.285
-0.3,-0.215,-0.37,-0.34,-0.32,-0.23,-0.475,-0.4,-0.42,-0.215,-0.44,-0.3
-0.305,-0.22,-0.36,-0.325,-0.33,-0.235,-0.47,-0.41,-0.4,-0.205,-0.44,-0.3
-0.3,-0.225,-0.355,-0.305,-0.335,-0.245,-0.48,-0.405,-0.41,-0.195,-0.445,-0.295
-0.295,-0.215,-0.325,-0.28,-0.325,-0.24,-0.475,-0.42,-0.42,-0.21,-0.435,-0.29
-0.3,-0.215,-0.305,-0.275,-0.32,-0.22,-0.475,-0.43,-0.43,-0.225,-0.435,-0.3
-0.305,-0.23,-0.31,-0.29,-0.31,-0.21,-0.46,-0.41,-0.42,-0.245,-0.445,-0.315
-0.315,-0.225,-0.32,-0.305,-0.305,-0.215,-0.465,-0.405,-0.405,-0.225,-0.44,-0.295
-0.31,-0.225,-0.325,-0.31,-0.325,-0.235,-0.47,-0.41,-0.41,-0.22,-0.43,-0.29
-0.315,-0.21,-0.325,-0.305,-0.33,-0.245,-0.465,-0.395,-0.43,-0.22,-0.425,-0.3
-0.295,-0.21,-0.315,-0.29,-0.325,-0.245,-0.465,-0.405,-0.44,-0.225,-0.43,-0.295
-0.3,-0.215,-0.3,-0.28,-0.32,-0.23,-0.45,-0.395,-0.435,-0.24,-0.44,-0.3
-0.31,-0.23,-0.305,-0.28,-0.305,-0.225,-0.445,-0.36,-0.42,-0.25,-0.445,-0.315
-0.33,-0.235,-0.32,-0.27,-0.32,-0.22,-0.43,-0.34,-0.415,-0.245,-0.435,-0.335
-0.34,-0.23,-0.33,-0.29,-0.32,-0.23,-0.435,-0.33,-0.43,-0.24,-0.43,-0.33
-0.33,-0.22,-0.33,-0.285,-0.34,-0.235,-0.435,-0.32,-0.43,-0.255,-0.42,-0.325
-0.32,-0.215,-0.31,-0.29,-0.325,-0.25,-0.425,-0.315,-0.435,-0.255,-0.43,-0.32
-0.32,-0.23,-0.31,-0.275,-0.325,-0.24,-0.4,-0.3,-0.435,-0.28,-0.435,-0.33
-0.315,-0.235,-0.31,-0.29,-0.33,-0.225,-0.38,-0.285,-0.435,-0.285,-0.455,-0.34
-0.325,-0.25,-0.305,-0.295,-0.33,-0.225,-0.365,-0.26,-0.425,-0.275,-0.44,-0.345
-0.335,-0.245,-0.31,-0.29,-0.345,-0.22,-0.365,-0.255,-0.435,-0.27,-0.44,-0.345
-0.33,-0.24,-0.32,-0.3,-0.355,-0.235,-0.39,-0.235,-0.435,-0.275,-0.44,-0.355
-0.315,-0.22,-0.305,-0.28,-0.35,-0.235,-0.365,-0.23,-0.44,-0.29,-0.44,-0.35
-0.32,-0.23,-0.3,-0.27,-0.33,-0.225,-0.365,-0.245,-0.44,-0.305,-0.445,-0.365
-0.32,-0.23,-0.3,-0.28,-0.325,-0.22,-0.34,-0.22,-0.435,-0.31,-0.445,-0.375
-0.33,-0.235,-0.305,-0.285,-0.335,-0.22,-0.345,-0.21,-0.425,-0.325,-0.435,-0.385
-0.345,-0.24,-0.32,-0.3,-0.335,-0.225,-0.33,-0.205,-0.425,-0.31,-0.435,-0.395
-0.34,-0.235,-0.32,-0.29,-0.36,-0.24,-0.35,-0.195,-0.445,-0.31,-0.425,-0.375
-0.335,-0.22,-0.315,-0.285,-0.35,-0.24,-0.335,-0.2,-0.44,-0.325,-0.425,-0.385
-0.33,-0.23,-0.315,-0.275,-0.345,-0.225,-0.32,-0.215,-0.455,-0.34,-0.44,-0.4
-0.335,-0.24,-0.31,-0.285,-0.355,-0.215,-0.325,-0.185,-0.445,-0.36,-0.44,-0.415
-0.345,-0.255,-0.33,-0.3,-0.36,-0.23,-0.32,-0.18,-0.44,-0.35,-0.45,-0.42
-0.35,-0.245,-0.335,-0.305,-0.35,-0.245,-0.315,-0.185,-0.44,-0.355,-0.435,-0.43
-0.345,-0.235,-0.335,-0.31,-0.37,-0.255,-0.335,-0.195,-0.45,-0.36,-0.44,-0.42
-0.34,-0.22,-0.32,-0.295,-0.35,-0.24,-0.33,-0.21,-0.435,-0.35,-0.455,-0.42
-0.335,-0.23,-0.315,-0.295,-0.355,-0.235,-0.32,-0.21,-0.445,-0.355,-0.455,-0.42
-0.335,-0.24,-0.315,-0.29,-0.35,-0.235,-0.315,-0.19,-0.435,-0.36,-0.465,-0.445
-0.33,-0.25,-0.325,-0.295,-0.35,-0.23,-0.31,-0.18,-0.43,-0.355,-0.45,-0.45
-0.335,-0.255,-0.33,-0.305,-0.35,-0.25,-0.315,-0.18,-0.43,-0.355,-0.45,-0.445
-0.34,-0.24,-0.335,-0.31,-0.365,-0.25,-0.325,-0.195,-0.43,-0.355,-0.445,-0.435
-0.335,-0.225,-0.32,-0.305,-0.355,-0.25,-0.33,-0.195,-0.44,-0.355,-0.455,-0.43
-0.32,-0.23,-0.3,-0.295,-0.36,-0.255,-0.315,-0.19,-0.44,-0.345,-0.455,-0.425
-0.34,-0.235,-0.3,-0.295,-0.35,-0.235,-0.32,-0.185,-0.43,-0.335,-0.455,-0.425
-0.34,-0.24,-0.32,-0.3,-0.36,-0.23,-0.32,-0.18,-0.42,-0.32,-0.455,-0.43
-0.35,-0.245,-0.32,-0.3,-0.365,-0.25,-0.32,-0.18,-0.415,-0.305,-0.435,-0.42
-0.365,-0.235,-0.33,-0.31,-0.375,-0.255,-0.335,-0.185,-0.415,-0.29,-0.435,-0.405
-0.36,-0.23,-0.32,-0.32,-0.365,-0.26,-0.345,-0.205,-0.41,-0.275,-0.435,-0.39
-0.345,-0.235,-0.32,-0.3,-0.375,-0.25,-0.33,-0.205,-0.405,-0.27,-0.43,-0.36
-0.345,-0.24,-0.325,-0.325,-0.365,-0.245,-0.33,-0.2,-0.385,-0.265,-0.425,-0.35
-0.35,-0.245,-0.34,-0.325,-0.38,-0.25,-0.325,-0.185,-0.37,-0.24,-0.41,-0.345
-0.35,-0.235,-0.355,-0.325,-0.38,-0.25,-0.335,-0.18,-0.365,-0.21,-0.385,-0.33
-0.35,-0.235,-0.345,-0.335,-0.395,-0.265,-0.345,-0.195,-0.365,-0.2,-0.375,-0.315
-0.34,-0.23,-0.35,-0.33,-0.385,-0.25,-0.335,-0.2,-0.365,-0.205,-0.38,-0.305
-0.34,-0.24,-0.345,-0.31,-0.375,-0.245,-0.325,-0.2,-0.35,-0.195,-0.38,-0.3
-0.345,-0.235,-0.345,-0.32,-0.37,-0.245,-0.325,-0.195,-0.345,-0.195,-0.38,-0.3
-0.345,-0.245,-0.36,-0.325,-0.375,-0.25,-0.335,-0.185,-0.325,-0.185,-0.355,-0.31
-0.38,-0.25,-0.36,-0.335,-0.375,-0.255,-0.335,-0.195,-0.325,-0.17,-0.355,-0.28
-0.36,-0.23,-0.345,-0.34,-0.385,-0.26,-0.345,-0.2,-0.325,-0.155,-0.355,-0.255
-0.36,-0.21,-0.34,-0.325,-0.375,-0.265,-0.345,-0.215,-0.34,-0.155,-0.355,-0.25
-0.345,-0.23,-0.34,-0.315,-0.375,-0.255,-0.345,-0.21,-0.335,-0.15,-0.365,-0.245
-0.345,-0.235,-0.355,-0.33,-0.36,-0.24,-0.33,-0.2,-0.315,-0.16,-0.34,-0.255
-0.35,-0.245,-0.35,-0.33,-0.37,-0.24,-0.325,-0.2,-0.3,-0.155,-0.33,-0.255
-0.355,-0.25,-0.35,-0.335,-0.375,-0.24,-0.34,-0.195,-0.3,-0.14,-0.33,-0.24
-0.345,-0.245,-0.355,-0.34,-0.38,-0.255,-0.335,-0.205,-0.315,-0.14,-0.335,-0.235
-0.33,-0.23,-0.34,-0.335,-0.375,-0.245,-0.335,-0.23,-0.3,-0.135,-0.35,-0.22
-0.33,-0.23,-0.335,-0.315,-0.365,-0.24,-0.325,-0.215,-0.305,-0.15,-0.345,-0.225
-0.335,-0.235,-0.34,-0.33,-0.36,-0.235,-0.315,-0.205,-0.305,-0.155,-0.34,-0.22
-0.335,-0.25,-0.35,-0.345,-0.36,-0.245,-0.315,-0.205,-0.295,-0.145,-0.34,-0.235
-0.34,-0.25,-0.355,-0.34,-0.365,-0.24,-0.335,-0.195,-0.31,-0.135,-0.33,-0.24
-0.33,-0.24,-0.355,-0.34,-0.38,-0.245,-0.34,-0.205,-0.31,-0.135,-0.33,-0.23
-0.32,-0.225,-0.355,-0.33,-0.38,-0.25,-0.34,-0.205,-0.315,-0.145,-0.335,-0.215
-0.29,-0.23,-0.345,-0.325,-0.375,-0.235,-0.33,-0.225,-0.325,-0.145,-0.345,-0.225
-0.29,-0.235,-0.345,-0.33,-0.355,-0.23,-0.34,-0.21,-0.315,-0.155,-0.35,-0.23
-0.3,-0.24,-0.35,-0.34,-0.365,-0.24,-0.325,-0.205,-0.3,-0.155,-0.345,-0.23
-0.305,-0.245,-0.36,-0.35,-0.37,-0.235,-0.335,-0.2,-0.31,-0.14,-0.34,-0.24
-0.285,-0.24,-0.365,-0.355,-0.385,-0.25,-0.355,-0.205,-0.305,-0.145,-0.34,-0.235
-0.28,-0.225,-0.365,-0.335,-0.375,-0.245,-0.35,-0.225,-0.32,-0.14,-0.335,-0.225
-0.275,-0.225,-0.35,-0.32,-0.36,-0.245,-0.34,-0.235,-0.32,-0.15,-0.355,-0.225
-0.28,-0.23,-0.35,-0.325,-0.365,-0.23,-0.335,-0.22,-0.31,-0.165,-0.355,-0.245
-0.275,-0.23,-0.36,-0.33,-0.365,-0.23,-0.34,-0.205,-0.31,-0.15,-0.345,-0.255
-0.27,-0.225,-0.37,-0.33,-0.38,-0.235,-0.34,-0.215,-0.31,-0.145,-0.34,-0.24
-0.265,-0.205,-0.36,-0.355,-0.38,-0.245,-0.36,-0.21,-0.31,-0.14,-0.35,-0.23
-0.25,-0.21,-0.35,-0.34,-0.37,-0.245,-0.365,-0.215,-0.32,-0.14,-0.355,-0.245
-0.23,-0.22,-0.335,-0.32,-0.36,-0.235,-0.355,-0.225,-0.325,-0.155,-0.355,-0.245
-0.245,-0.205,-0.35,-0.335,-0.36,-0.215,-0.35,-0.22,-0.32,-0.16,-0.355,-0.25
-0.24,-0.22,-0.35,-0.335,-0.35,-0.22,-0.345,-0.215,-0.3,-0.16,-0.36,-0.26
-0.255,-0.22,-0.345,-0.33,-0.36,-0.24,-0.345,-0.22,-0.29,-0.145,-0.355,-0.255
-0.255,-0.21,-0.34,-0.35,-0.365,-0.24,-0.355,-0.215,-0.31,-0.145,-0.36,-0.23
-0.245,-0.19,-0.34,-0.335,-0.35,-0.235,-0.375,-0.22,-0.32,-0.145,-0.365,-0.23
-0.235,-0.18,-0.34,-0.335,-0.345,-0.24,-0.345,-0.225,-0.325,-0.165,-0.37,-0.245
-0.255,-0.18,-0.34,-0.34,-0.335,-0.235,-0.34,-0.22,-0.3,-0.16,-0.375,-0.255
-0.265,-0.185,-0.345,-0.34,-0.325,-0.23,-0.355,-0.215,-0.3,-0.145,-0.365,-0.27
-0.26,-0.19,-0.35,-0.35,-0.32,-0.23,-0.35,-0.215,-0.3,-0.16,-0.365,-0.26
-0.255,-0.19,-0.36,-0.345,-0.33,-0.24,-0.365,-0.22,-0.305,-0.15,-0.365,-0.255
-0.27,-0.185,-0.35,-0.325,-0.32,-0.245,-0.35,-0.24,-0.325,-0.15,-0.37,-0.255
-0.265,-0.205,-0.335,-0.32,-0.3,-0.24,-0.355,-0.23,-0.335,-0.155,-0.385,-0.25
-0.28,-0.2,-0.345,-0.325,-0.3,-0.22,-0.34,-0.215,-0.325,-0.18,-0.39,-0.26
-0.255,-0.22,-0.35,-0.345,-0.295,-0.225,-0.35,-0.21,-0.31,-0.16,-0.39,-0.265
-0.25,-0.22,-0.35,-0.35,-0.305,-0.23,-0.35,-0.22,-0.325,-0.14,-0.37,-0.26
-0.245,-0.22,-0.355,-0.35,-0.295,-0.235,-0.35,-0.22,-0.33,-0.16,-0.37,-0.255
-0.265,-0.21,-0.34,-0.345,-0.285,-0.22,-0.355,-0.235,-0.33,-0.165,-0.375,-0.25
-0.28,-0.225,-0.335,-0.33,-0.27,-0.205,-0.33,-0.235,-0.34,-0.17,-0.385,-0.265
-0.3,-0.22,-0.33,-0.315,-0.27,-0.19,-0.335,-0.225,-0.33,-0.165,-0.395,-0.25
-0.315,-0.24,-0.34,-0.33,-0.255,-0.195,-0.335,-0.21,-0.315,-0.165,-0.395,-0.26
-0.325,-0.245,-0.355,-0.34,-0.265,-0.185,-0.34,-0.215,-0.32,-0.165,-0.365,-0.265
-0.335,-0.235,-0.355,-0.345,-0.27,-0.2,-0.36,-0.205,-0.33,-0.155,-0.37,-0.255
-0.345,-0.23,-0.33,-0.34,-0.275,-0.195,-0.35,-0.215,-0.34,-0.155,-0.39,-0.255
-0.33,-0.245,-0.315,-0.32,-0.265,-0.205,-0.34,-0.235,-0.34,-0.175,-0.39,-0.265
-0.335,-0.245,-0.315,-0.33,-0.275,-0.19,-0.335,-0.22,-0.335,-0.185,-0.395,-0.28
-0.345,-0.25,-0.315,-0.34,-0.27,-0.2,-0.345,-0.215,-0.325,-0.18,-0.385,-0.285
-0.36,-0.255,-0.32,-0.35,-0.285,-0.19,-0.345,-0.21,-0.32,-0.165,-0.39,-0.275
-0.35,-0.23,-0.3,-0.335,-0.295,-0.185,-0.36,-0.21,-0.335,-0.17,-0.39,-0.26
-0.34,-0.225,-0.3,-0.325,-0.295,-0.18,-0.36,-0.23,-0.335,-0.165,-0.38,-0.265
-0.335,-0.23,-0.28,-0.31,-0.285,-0.16,-0.355,-0.225,-0.34,-0.175,-0.39,-0.275
-0.345,-0.245,-0.265,-0.305,-0.275,-0.165,-0.345,-0.215,-0.34,-0.18,-0.405,-0.28
-0.36,-0.255,-0.28,-0.32,-0.28,-0.165,-0.35,-0.2,-0.325,-0.17,-0.39,-0.28
-0.365,-0.265,-0.285,-0.315,-0.3,-0.17,-0.375,-0.2,-0.335,-0.175,-0.395,-0.275
-0.375,-0.255,-0.265,-0.32,-0.29,-0.18,-0.385,-0.215,-0.34,-0.175,-0.4,-0.265
-0.37,-0.245,-0.235,-0.31,-0.285,-0.175,-0.36,-0.225,-0.35,-0.185,-0.4,-0.265
-0.365,-0.26,-0.23,-0.29,-0.255,-0.17,-0.355,-0.22,-0.36,-0.195,-0.415,-0.265
-0.365,-0.25,-0.23,-0.295,-0.24,-0.17,-0.34,-0.21,-0.355,-0.19,-0.41,-0.275
-0.38,-0.26,-0.245,-0.305,-0.27,-0.175,-0.345,-0.205,-0.335,-0.19,-0.405,-0.28
-0.375,-0.27,-0.255,-0.305,-0.3,-0.19,-0.35,-0.21,-0.335,-0.17,-0.39,-0.28
-0.375,-0.24,-0.25,-0.31,-0.34,-0.21,-0.365,-0.22,-0.355,-0.17,-0.385,-0.275
-0.365,-0.245,-0.245,-0.295,-0.34,-0.21,-0.36,-0.215,-0.355,-0.175,-0.395,-0.265
-0.37,-0.25,-0.25,-0.28,-0.35,-0.2,-0.345,-0.22,-0.36,-0.18,-0.41,-0.245
-0.36,-0.25,-0.255,-0.28,-0.36,-0.2,-0.34,-0.215,-0.35,-0.185,-0.405,-0.265
-0.37,-0.25,-0.265,-0.285,-0.38,-0.2,-0.34,-0.205,-0.35,-0.18,-0.38,-0.275
-0.38,-0.265,-0.27,-0.29,-0.39,-0.215,-0.34,-0.21,-0.345,-0.17,-0.375,-0.275
-0.365,-0.255,-0.29,-0.295,-0.405,-0.22,-0.345,-0.21,-0.35,-0.17,-0.385,-0.265
-0.36,-0.245,-0.28,-0.29,-0.4,-0.225,-0.335,-0.215,-0.36,-0.175,-0.375,-0.265
-0.35,-0.255,-0.275,-0.285,-0.385,-0.22,-0.325,-0.22,-0.35,-0.18,-0.38,-0.26
-0.355,-0.265,-0.26,-0.295,-0.385,-0.205,-0.29,-0.21,-0.34,-0.195,-0.385,-0.275
-0.37,-0.28,-0.255,-0.3,-0.385,-0.22,-0.28,-0.205,-0.335,-0.185,-0.37,-0.265
-0.385,-0.305,-0.26,-0.315,-0.405,-0.22,-0.285,-0.205,-0.34,-0.175,-0.37,-0.26
-0.395,-0.32,-0.275,-0.315,-0.41,-0.23,-0.295,-0.205,-0.34,-0.17,-0.37,-0.25
-0.43,-0.35,-0.295,-0.305,-0.405,-0.225,-0.29,-0.22,-0.345,-0.175,-0.37,-0.235
-0.445,-0.38,-0.3,-0.295,-0.39,-0.215,-0.275,-0.205,-0.35,-0.18,-0.38,-0.25
-0.485,-0.39,-0.305,-0.305,-0.4,-0.21,-0.275,-0.195,-0.345,-0.185,-0.38,-0.255
-0.515,-0.345,-0.335,-0.31,-0.395,-0.225,-0.26,-0.185,-0.325,-0.175,-0.385,-0.275
-0.565,-0.24,-0.355,-0.345,-0.415,-0.23,-0.25,-0.185,-0.325,-0.165,-0.375,-0.26
-0.555,-0.11,-0.35,-0.335,-0.415,-0.245,-0.26,-0.17,-0.315,-0.17,-0.38,-0.265
-0.475,-0.02,-0.35,-0.34,-0.405,-0.225,-0.245,-0.175,-0.34,-0.175,-0.38,-0.25
-0.355,0.04,-0.35,-0.335,-0.395,-0.215,-0.23,-0.18,-0.34,-0.18,-0.385,-0.255
-0.22,0.11,-0.355,-0.33,-0.39,-0.21,-0.23,-0.165,-0.325,-0.19,-0.39,-0.255
-0.055,0.22,-0.37,-0.33,-0.39,-0.215,-0.24,-0.15,-0.33,-0.185,-0.365,-0.265
0.185,0.35,-0.37,-0.345,-0.405,-0.21,-0.24,-0.155,-0.33,-0.165,-0.365,-0.265
0.475,0.44,-0.36,-0.345,-0.415,-0.225,-0.25,-0.155,-0.335,-0.16,-0.355,-0.255
0.705,0.395,-0.365,-0.34,-0.415,-0.23,-0.265,-0.16,-0.335,-0.16,-0.375,-0.245
0.82,0.155,-0.355,-0.335,-0.4,-0.235,-0.25,-0.155,-0.345,-0.18,-0.36,-0.255
0.78,-0.17,-0.365,-0.33,-0.405,-0.235,-0.245,-0.145,-0.34,-0.185,-0.355,-0.265
0.535,-0.38,-0.375,-0.335,-0.43,-0.265,-0.235,-0.13,-0.33,-0.175,-0.335,-0.26
0.145,-0.41,-0.385,-0.335,-0.48,-0.295,-0.25,-0.125,-0.33,-0.165,-0.315,-0.26
-0.2,-0.355,-0.38,-0.33,-0.525,-0.335,-0.28,-0.14,-0.345,-0.16,-0.305,-0.245
-0.42,-0.32,-0.375,-0.325,-0.55,-0.385,-0.27,-0.15,-0.35,-0.155,-0.3,-0.235
-0.5,-0.305,-0.355,-0.31,-0.57,-0.385,-0.24,-0.145,-0.34,-0.17,-0.31,-0.235
-0.48,-0.3,-0.37,-0.325,-0.595,-0.37,-0.22,-0.14,-0.315,-0.17,-0.315,-0.24
-0.45,-0.295,-0.385,-0.325,-0.645,-0.32,-0.21,-0.14,-0.305,-0.18,-0.29,-0.24
-0.41,-0.295,-0.39,-0.33,-0.64,-0.215,-0.235,-0.155,-0.285,-0.17,-0.27,-0.23
-0.4,-0.285,-0.39,-0.335,-0.57,-0.1,-0.285,-0.155,-0.285,-0.16,-0.27,-0.23
-0.39,-0.3,-0.37,-0.335,-0.44,0,-0.29,-0.17,-0.28,-0.185,-0.27,-0.215
-0.39,-0.31,-0.36,-0.315,-0.335,0.09,-0.315,-0.17,-0.285,-0.185,-0.29,-0.215
-0.4,-0.305,-0.37,-0.32,-0.25,0.17,-0.31,-0.155,-0.27,-0.18,-0.285,-0.23
-0.405,-0.305,-0.38,-0.33,-0.15,0.235,-0.31,-0.165,-0.245,-0.16,-0.275,-0.225
-0.425,-0.295,-0.385,-0.325,-0.015,0.305,-0.34,-0.165,-0.255,-0.155,-0.265,-0.22
-0.425,-0.27,-0.38,-0.335,0.16,0.42,-0.36,-0.165,-0.28,-0.16,-0.27,-0.2
-0.405,-0.27,-0.375,-0.325,0.41,0.53,-0.345,-0.185,-0.285,-0.16,-0.285,-0.195
-0.395,-0.285,-0.37,-0.33,0.665,0.665,-0.345,-0.185,-0.29,-0.155,-0.3,-0.2
-0.405,-0.305,-0.38,-0.35,0.855,0.75,-0.34,-0.205,-0.27,-0.165,-0.31,-0.2
-0.405,-0.31,-0.405,-0.375,0.955,0.7,-0.365,-0.19,-0.255,-0.15,-0.295,-0.205
-0.415,-0.3,-0.445,-0.395,0.91,0.44,-0.355,-0.19,-0.245,-0.14,-0.285,-0.2
-0.405,-0.29,-0.465,-0.425,0.645,0.07,-0.38,-0.19,-0.24,-0.14,-0.285,-0.18
-0.385,-0.275,-0.48,-0.425,0.215,-0.22,-0.365,-0.205,-0.26,-0.145,-0.295,-0.18
-0.39,-0.285,-0.485,-0.43,-0.195,-0.285,-0.355,-0.2,-0.25,-0.145,-0.31,-0.19
-0.395,-0.285,-0.525,-0.425,-0.445,-0.255,-0.36,-0.19,-0.235,-0.145,-0.315,-0.185
-0.395,-0.305,-0.555,-0.365,-0.54,-0.235,-0.355,-0.185,-0.23,-0.135,-0.285,-0.2
-0.395,-0.29,-0.535,-0.27,-0.51,-0.245,-0.36,-0.185,-0.225,-0.11,-0.26,-0.215
-0.395,-0.29,-0.45,-0.165,-0.485,-0.255,-0.375,-0.195,-0.245,-0.12,-0.265,-0.2
-0.385,-0.285,-0.325,-0.065,-0.435,-0.255,-0.38,-0.21,-0.245,-0.13,-0.3,-0.21
-0.39,-0.285,-0.185,0.015,-0.445,-0.245,-0.37,-0.2,-0.255,-0.135,-0.345,-0.215
-0.39,-0.29,-0.025,0.08,-0.44,-0.245,-0.365,-0.205,-0.25,-0.14,-0.35,-0.23
-0.4,-0.3,0.185,0.18,-0.44,-0.25,-0.36,-0.19,-0.255,-0.115,-0.35,-0.23
-0.425,-0.295,0.43,0.295,-0.44,-0.26,-0.36,-0.2,-0.24,-0.105,-0.345,-0.225
-0.41,-0.285,0.66,0.39,-0.45,-0.265,-0.375,-0.2,-0.25,-0.1,-0.37,-0.23
-0.4,-0.275,0.815,0.405,-0.455,-0.27,-0.375,-0.21,-0.255,-0.1,-0.395,-0.225
-0.395,-0.29,0.85,0.315,-0.455,-0.26,-0.375,-0.22,-0.275,-0.12,-0.39,-0.24
-0.4,-0.295,0.75,0.025,-0.45,-0.25,-0.355,-0.205,-0.255,-0.11,-0.4,-0.255
-0.405,-0.275,0.485,-0.26,-0.455,-0.25,-0.365,-0.185,-0.24,-0.12,-0.39,-0.265
-0.425,-0.285,0.11,-0.44,-0.46,-0.26,-0.365,-0.195,-0.225,-0.105,-0.395,-0.26
-0.415,-0.285,-0.21,-0.465,-0.47,-0.265,-0.39,-0.2,-0.22,-0.1,-0.4,-0.245
-0.405,-0.26,-0.39,-0.415,-0.465,-0.27,-0.415,-0.24,-0.23,-0.12,-0.4,-0.245
-0.405,-0.27,-0.46,-0.375,-0.45,-0.27,-0.43,-0.265,-0.26,-0.135,-0.415,-0.255
-0.405,-0.265,-0.485,-0.36,-0.44,-0.25,-0.47,-0.29,-0.285,-0.15,-0.43,-0.26
-0.41,-0.285,-0.47,-0.35,-0.45,-0.26,-0.5,-0.305,-0.29,-0.135,-0.425,-0.27
-0.415,-0.29,-0.45,-0.35,-0.445,-0.26,-0.525,-0.325,-0.295,-0.13,-0.405,-0.265
-0.405,-0.295,-0.425,-0.35,-0.46,-0.26,-0.58,-0.355,-0.32,-0.135,-0.42,-0.26
-0.42,-0.28,-0.415,-0.335,-0.46,-0.265,-0.6,-0.34,-0.345,-0.145,-0.43,-0.245
-0.405,-0.29,-0.405,-0.325,-0.44,-0.255,-0.56,-0.235,-0.35,-0.155,-0.425,-0.255
-0.41,-0.295,-0.415,-0.325,-0.445,-0.26,-0.445,-0.095,-0.345,-0.165,-0.42,-0.265
-0.41,-0.3,-0.415,-0.34,-0.445,-0.25,-0.305,0.04,-0.34,-0.16,-0.41,-0.265
-0.42,-0.31,-0.42,-0.33,-0.45,-0.26,-0.16,0.155,-0.345,-0.155,-0.405,-0.26
-0.415,-0.305,-0.4,-0.335,-0.455,-0.265,-0.005,0.27,-0.365,-0.15,-0.4,-0.27
-0.405,-0.295,-0.395,-0.325,-0.45,-0.265,0.23,0.37,-0.37,-0.155,-0.405,-0.27
-0.395,-0.3,-0.385,-0.325,-0.455,-0.26,0.535,0.505,-0.375,-0.165,-0.425,-0.265
-0.395,-0.28,-0.395,-0.335,-0.435,-0.265,0.795,0.65,-0.365,-0.18,-0.425,-0.26
-0.395,-0.29,-0.4,-0.325,-0.455,-0.255,0.985,0.79,-0.365,-0.175,-0.415,-0.275
-0.4,-0.305,-0.42,-0.35,-0.45,-0.26,1.05,0.85,-0.365,-0.17,-0.415,-0.265
-0.395,-0.29,-0.41,-0.34,-0.455,-0.275,0.975,0.77,-0.36,-0.155,-0.42,-0.26
-0.395,-0.285,-0.4,-0.34,-0.455,-0.265,0.715,0.47,-0.37,-0.16,-0.43,-0.27
-0.405,-0.305,-0.4,-0.31,-0.445,-0.255,0.27,0.075,-0.375,-0.175,-0.475,-0.3
-0.405,-0.31,-0.405,-0.32,-0.44,-0.24,-0.145,-0.195,-0.375,-0.17,-0.505,-0.345
-0.42,-0.315,-0.405,-0.325,-0.435,-0.245,-0.41,-0.245,-0.375,-0.18,-0.535,-0.38
-0.435,-0.305,-0.435,-0.345,-0.435,-0.245,-0.52,-0.215,-0.365,-0.175,-0.535,-0.41
-0.415,-0.295,-0.42,-0.34,-0.45,-0.26,-0.5,-0.22,-0.375,-0.17,-0.585,-0.415
-0.405,-0.29,-0.41,-0.33,-0.445,-0.26,-0.435,-0.24,-0.375,-0.17,-0.64,-0.405
-0.395,-0.295,-0.405,-0.315,-0.43,-0.265,-0.39,-0.23,-0.385,-0.195,-0.65,-0.34
-0.39,-0.3,-0.415,-0.31,-0.44,-0.25,-0.39,-0.235,-0.37,-0.185,-0.585,-0.25
-0.415,-0.305,-0.43,-0.32,-0.45,-0.25,-0.4,-0.225,-0.36,-0.175,-0.48,-0.16
-0.405,-0.325,-0.44,-0.335,-0.45,-0.27,-0.41,-0.23,-0.355,-0.16,-0.39,-0.085
-0.405,-0.31,-0.435,-0.335,-0.455,-0.265,-0.42,-0.23,-0.37,-0.165,-0.34,-0.025
-0.4,-0.3,-0.415,-0.325,-0.46,-0.26,-0.415,-0.26,-0.375,-0.175,-0.265,0.015
-0.395,-0.31,-0.42,-0.315,-0.44,-0.255,-0.405,-0.255,-0.4,-0.2,-0.175,0.04
-0.395,-0.335,-0.43,-0.325,-0.435,-0.25,-0.41,-0.25,-0.42,-0.225,-0.04,0.065
-0.405,-0.34,-0.415,-0.33,-0.445,-0.26,-0.415,-0.24,-0.445,-0.24,0.15,0.14
-0.42,-0.35,-0.43,-0.325,-0.455,-0.265,-0.42,-0.24,-0.48,-0.255,0.375,0.25
-0.415,-0.355,-0.425,-0.33,-0.46,-0.275,-0.435,-0.24,-0.505,-0.275,0.56,0.355
-0.4,-0.34,-0.42,-0.315,-0.455,-0.275,-0.435,-0.255,-0.54,-0.31,0.705,0.44
-0.395,-0.35,-0.42,-0.32,-0.44,-0.265,-0.425,-0.25,-0.575,-0.345,0.77,0.495
-0.4,-0.365,-0.415,-0.31,-0.445,-0.26,-0.42,-0.245,-0.595,-0.34,0.725,0.395
-0.405,-0.38,-0.425,-0.32,-0.44,-0.255,-0.425,-0.235,-0.585,-0.27,0.49,0.11
-0.425,-0.4,-0.425,-0.335,-0.45,-0.275,-0.43,-0.23,-0.52,-0.165,0.14,-0.235
-0.425,-0.385,-0.42,-0.33,-0.465,-0.275,-0.435,-0.25,-0.405,-0.04,-0.23,-0.38
-0.425,-0.38,-0.41,-0.315,-0.45,-0.275,-0.43,-0.26,-0.285,0.07,-0.48,-0.365
-0.42,-0.39,-0.41,-0.315,-0.455,-0.27,-0.425,-0.26,-0.145,0.16,-0.565,-0.305
-0.425,-0.4,-0.41,-0.315,-0.44,-0.275,-0.41,-0.25,0.05,0.25,-0.54,-0.305
-0.45,-0.405,-0.42,-0.32,-0.44,-0.27,-0.415,-0.235,0.315,0.375,-0.48,-0.315
-0.445,-0.405,-0.43,-0.33,-0.45,-0.275,-0.42,-0.235,0.585,0.5,-0.45,-0.315
-0.45,-0.405,-0.42,-0.33,-0.475,-0.3,-0.43,-0.245,0.77,0.615,-0.44,-0.31
-0.435,-0.415,-0.415,-0.315,-0.455,-0.295,-0.435,-0.26,0.85,0.7,-0.45,-0.31
-0.445,-0.415,-0.395,-0.31,-0.45,-0.29,-0.43,-0.26,0.815,0.635,-0.45,-0.315
-0.47,-0.42,-0.405,-0.305,-0.45,-0.285,-0.425,-0.245,0.6,0.4,-0.45,-0.315
-0.455,-0.415,-0.415,-0.32,-0.44,-0.29,-0.43,-0.23,0.28,0.07,-0.445,-0.315
-0.46,-0.425,-0.43,-0.335,-0.44,-0.3,-0.44,-0.23,-0.1,-0.17,-0.43,-0.31
-0.44,-0.41,-0.42,-0.335,-0.455,-0.33,-0.44,-0.245,-0.37,-0.24,-0.43,-0.3
-0.435,-0.395,-0.42,-0.345,-0.44,-0.325,-0.44,-0.235,-0.495,-0.225,-0.45,-0.305
-0.425,-0.385,-0.415,-0.325,-0.44,-0.31,-0.43,-0.255,-0.5,-0.215,-0.46,-0.31
-0.43,-0.405,-0.42,-0.33,-0.435,-0.305,-0.42,-0.245,-0.455,-0.225,-0.465,-0.32
-0.445,-0.395,-0.425,-0.33,-0.44,-0.325,-0.425,-0.23,-0.405,-0.22,-0.46,-0.325
-0.45,-0.395,-0.44,-0.335,-0.445,-0.335,-0.425,-0.235,-0.39,-0.205,-0.455,-0.32
-0.445,-0.375,-0.43,-0.335,-0.455,-0.36,-0.435,-0.24,-0.4,-0.2,-0.45,-0.32
-0.43,-0.37,-0.425,-0.33,-0.45,-0.355,-0.43,-0.25,-0.41,-0.2,-0.45,-0.3
-0.42,-0.375,-0.415,-0.325,-0.44,-0.35,-0.435,-0.25,-0.41,-0.22,-0.455,-0.305
-0.41,-0.375,-0.42,-0.33,-0.435,-0.35,-0.43,-0.23,-0.39,-0.23,-0.46,-0.32
-0.425,-0.37,-0.425,-0.335,-0.45,-0.36,-0.425,-0.24,-0.375,-0.23,-0.45,-0.325
-0.42,-0.36,-0.44,-0.355,-0.445,-0.36,-0.43,-0.24,-0.385,-0.215,-0.445,-0.315
-0.405,-0.345,-0.43,-0.355,-0.455,-0.385,-0.435,-0.245,-0.395,-0.215,-0.45,-0.305
-0.38,-0.32,-0.43,-0.35,-0.45,-0.395,-0.425,-0.255,-0.415,-0.215,-0.455,-0.305
-0.37,-0.305,-0.425,-0.33,-0.445,-0.39,-0.42,-0.245,-0.41,-0.22,-0.465,-0.305
-0.365,-0.305,-0.42,-0.34,-0.445,-0.39,-0.42,-0.245,-0.4,-0.24,-0.47,-0.31
-0.365,-0.3,-0.415,-0.36,-0.455,-0.4,-0.42,-0.235,-0.395,-0.225,-0.455,-0.335
-0.365,-0.285,-0.425,-0.365,-0.47,-0.4,-0.42,-0.23,-0.385,-0.22,-0.445,-0.325
-0.345,-0.275,-0.43,-0.365,-0.47,-0.425,-0.44,-0.24,-0.39,-0.22,-0.455,-0.315
-0.33,-0.26,-0.425,-0.37,-0.48,-0.41,-0.435,-0.26,-0.405,-0.21,-0.455,-0.32
-0.315,-0.245,-0.415,-0.35,-0.465,-0.42,-0.43,-0.26,-0.41,-0.225,-0.455,-0.315
-0.305,-0.245,-0.405,-0.355,-0.455,-0.405,-0.425,-0.26,-0.39,-0.24,-0.455,-0.315
-0.305,-0.25,-0.405,-0.37,-0.455,-0.405,-0.435,-0.25,-0.395,-0.23,-0.435,-0.315
-0.32,-0.255,-0.425,-0.38,-0.465,-0.41,-0.44,-0.245,-0.39,-0.22,-0.435,-0.315
-0.31,-0.245,-0.415,-0.39,-0.47,-0.42,-0.445,-0.255,-0.4,-0.21,-0.425,-0.31
-0.31,-0.23,-0.42,-0.385,-0.47,-0.41,-0.435,-0.26,-0.425,-0.215,-0.445,-0.305
-0.305,-0.235,-0.42,-0.38,-0.455,-0.405,-0.435,-0.285,-0.41,-0.23,-0.44,-0.31
-0.31,-0.245,-0.42,-0.39,-0.455,-0.38,-0.425,-0.285,-0.395,-0.23,-0.45,-0.325
-0.315,-0.255,-0.435,-0.395,-0.46,-0.38,-0.425,-0.275,-0.39,-0.225,-0.45,-0.32
-0.32,-0.255,-0.435,-0.42,-0.45,-0.375,-0.435,-0.27,-0.4,-0.205,-0.455,-0.325
-0.315,-0.225,-0.44,-0.43,-0.455,-0.38,-0.445,-0.28,-0.4,-0.205,-0.45,-0.315
-0.305,-0.23,-0.42,-0.42,-0.445,-0.36,-0.435,-0.29,-0.405,-0.21,-0.455,-0.305
-0.305,-0.235,-0.43,-0.41,-0.435,-0.345,-0.445,-0.295,-0.41,-0.225,-0.465,-0.305
-0.295,-0.24,-0.45,-0.425,-0.41,-0.33,-0.42,-0.29,-0.395,-0.235,-0.46,-0.325
-0.31,-0.25,-0.455,-0.43,-0.42,-0.34,-0.425,-0.3,-0.395,-0.225,-0.46,-0.335
-0.32,-0.245,-0.465,-0.45,-0.42,-0.32,-0.43,-0.315,-0.39,-0.21,-0.445,-0.325
-0.31,-0.225,-0.465,-0.46,-0.425,-0.315,-0.44,-0.305,-0.405,-0.205,-0.445,-0.32
-0.315,-0.215,-0.465,-0.445,-0.41,-0.3,-0.435,-0.32,-0.4,-0.215,-0.46,-0.305
-0.295,-0.22,-0.465,-0.455,-0.39,-0.28,-0.42,-0.32,-0.395,-0.22,-0.47,-0.32
-0.3,-0.24,-0.465,-0.45,-0.37,-0.25,-0.42,-0.325,-0.395,-0.23,-0.465,-0.32
-0.305,-0.25,-0.47,-0.45,-0.37,-0.255,-0.42,-0.32,-0.385,-0.22,-0.455,-0.325
-0.3,-0.255,-0.49,-0.47,-0.375,-0.24,-0.415,-0.335,-0.39,-0.21,-0.435,-0.32
-0.285,-0.245,-0.485,-0.465,-0.38,-0.24,-0.43,-0.35,-0.395,-0.22,-0.44,-0.315
-0.28,-0.24,-0.46,-0.46,-0.36,-0.235,-0.43,-0.36,-0.405,-0.215,-0.45,-0.31
-0.29,-0.235,-0.455,-0.44,-0.35,-0.23,-0.43,-0.365,-0.4,-0.22,-0.455,-0.315
-0.295,-0.245,-0.46,-0.445,-0.35,-0.2,-0.415,-0.365,-0.385,-0.215,-0.465,-0.325
-0.305,-0.255,-0.455,-0.435,-0.335,-0.195,-0.425,-0.36,-0.375,-0.22,-0.465,-0.345
-0.325,-0.25,-0.455,-0.42,-0.34,-0.205,-0.435,-0.365,-0.385,-0.21,-0.465,-0.335
-0.305,-0.235,-0.44,-0.4,-0.355,-0.21,-0.45,-0.375,-0.39,-0.215,-0.45,-0.33
-0.3,-0.23,-0.425,-0.38,-0.355,-0.21,-0.445,-0.395,-0.405,-0.215,-0.445,-0.33
-0.3,-0.25,-0.415,-0.365,-0.34,-0.21,-0.44,-0.39,-0.4,-0.235,-0.445,-0.335
-0.315,-0.26,-0.4,-0.365,-0.33,-0.185,-0.435,-0.39,-0.39,-0.23,-0.445,-0.35
-0.325,-0.275,-0.405,-0.355,-0.345,-0.19,-0.44,-0.38,-0.4,-0.22,-0.445,-0.36
-0.335,-0.28,-0.4,-0.34,-0.35,-0.195,-0.435,-0.385,-0.405,-0.21,-0.43,-0.365
-0.325,-0.275,-0.385,-0.345,-0.345,-0.19,-0.445,-0.375,-0.41,-0.21,-0.43,-0.345
-0.315,-0.26,-0.365,-0.32,-0.345,-0.205,-0.44,-0.39,-0.4,-0.225,-0.435,-0.33
-0.32,-0.27,-0.365,-0.3,-0.33,-0.21,-0.44,-0.395,-0.415,-0.24,-0.46,-0.345
-0.335,-0.255,-0.36,-0.29,-0.315,-0.19,-0.425,-0.385,-0.405,-0.24,-0.45,-0.36
-0.33,-0.265,-0.37,-0.28,-0.325,-0.2,-0.425,-0.36,-0.39,-0.23,-0.44,-0.375
-0.34,-0.255,-0.375,-0.295,-0.34,-0.205,-0.425,-0.35,-0.385,-0.23,-0.425,-0.38
-0.325,-0.265,-0.355,-0.285,-0.34,-0.21,-0.43,-0.36,-0.4,-0.225,-0.44,-0.375
-0.325,-0.26,-0.34,-0.27,-0.34,-0.2,-0.435,-0.35,-0.41,-0.24,-0.455,-0.375
-0.32,-0.265,-0.33,-0.26,-0.34,-0.195,-0.41,-0.34,-0.41,-0.24,-0.46,-0.375
-0.315,-0.265,-0.33,-0.255,-0.335,-0.185,-0.395,-0.325,-0.39,-0.27,-0.475,-0.395
-0.335,-0.275,-0.33,-0.25,-0.345,-0.19,-0.395,-0.29,-0.38,-0.255,-0.47,-0.41
-0.335,-0.27,-0.34,-0.25,-0.35,-0.19,-0.39,-0.285,-0.37,-0.25,-0.455,-0.405
-0.345,-0.265,-0.335,-0.255,-0.37,-0.21,-0.385,-0.28,-0.385,-0.245,-0.455,-0.405
-0.335,-0.255,-0.32,-0.245,-0.35,-0.215,-0.39,-0.28,-0.395,-0.255,-0.47,-0.415
-0.325,-0.255,-0.305,-0.245,-0.345,-0.2,-0.38,-0.275,-0.39,-0.265,-0.485,-0.425
-0.33,-0.265,-0.315,-0.235,-0.335,-0.2,-0.355,-0.26,-0.375,-0.275,-0.485,-0.445
-0.315,-0.275,-0.32,-0.245,-0.355,-0.2,-0.34,-0.225,-0.385,-0.275,-0.47,-0.45
-0.335,-0.29,-0.32,-0.24,-0.365,-0.2,-0.35,-0.22,-0.39,-0.285,-0.47,-0.44
-0.33,-0.275,-0.32,-0.25,-0.36,-0.22,-0.345,-0.21,-0.39,-0.265,-0.47,-0.44
-0.33,-0.26,-0.315,-0.24,-0.365,-0.205,-0.34,-0.215,-0.395,-0.285,-0.48,-0.44
-0.33,-0.27,-0.31,-0.23,-0.36,-0.215,-0.32,-0.21,-0.41,-0.31,-0.49,-0.45
-0.33,-0.265,-0.31,-0.235,-0.35,-0.2,-0.31,-0.2,-0.395,-0.305,-0.49,-0.445
-0.335,-0.27,-0.315,-0.24,-0.355,-0.205,-0.3,-0.185,-0.38,-0.31,-0.475,-0.465
-0.34,-0.265,-0.33,-0.26,-0.355,-0.22,-0.305,-0.175,-0.4,-0.31,-0.46,-0.46
-0.33,-0.265,-0.32,-0.25,-0.375,-0.22,-0.33,-0.175,-0.4,-0.31,-0.465,-0.455
-0.32,-0.25,-0.32,-0.24,-0.375,-0.225,-0.325,-0.185,-0.4,-0.31,-0.475,-0.44
-0.315,-0.265,-0.31,-0.23,-0.37,-0.22,-0.32,-0.18,-0.41,-0.34,-0.485,-0.44
-0.325,-0.265,-0.32,-0.235,-0.355,-0.205,-0.32,-0.18,-0.41,-0.355,-0.485,-0.445
-0.335,-0.27,-0.33,-0.235,-0.355,-0.195,-0.305,-0.165,-0.4,-0.35,-0.475,-0.465
-0.355,-0.27,-0.34,-0.265,-0.375,-0.215,-0.325,-0.17,-0.41,-0.34,-0.48,-0.45
-0.345,-0.265,-0.33,-0.265,-0.375,-0.23,-0.325,-0.16,-0.4,-0.35,-0.47,-0.44
-0.34,-0.255,-0.325,-0.255,-0.385,-0.23,-0.315,-0.185,-0.415,-0.36,-0.475,-0.42
-0.335,-0.26,-0.325,-0.245,-0.365,-0.225,-0.32,-0.18,-0.425,-0.38,-0.48,-0.41
-0.32,-0.255,-0.32,-0.245,-0.36,-0.205,-0.315,-0.175,-0.415,-0.38,-0.48,-0.42
-0.325,-0.27,-0.34,-0.25,-0.365,-0.225,-0.315,-0.165,-0.4,-0.375,-0.445,-0.405
-0.35,-0.27,-0.35,-0.27,-0.39,-0.225,-0.32,-0.165,-0.405,-0.375,-0.44,-0.39
-0.33,-0.285,-0.34,-0.27,-0.39,-0.23,-0.33,-0.175,-0.405,-0.365,-0.415,-0.37
-0.315,-0.265,-0.32,-0.255,-0.385,-0.23,-0.325,-0.185,-0.415,-0.37,-0.415,-0.35
-0.315,-0.26,-0.315,-0.25,-0.38,-0.215,-0.32,-0.19,-0.42,-0.375,-0.41,-0.345
-0.33,-0.265,-0.325,-0.255,-0.385,-0.21,-0.315,-0.17,-0.405,-0.385,-0.41,-0.345
-0.33,-0.27,-0.34,-0.255,-0.39,-0.22,-0.31,-0.17,-0.395,-0.38,-0.39,-0.335
-0.335,-0.265,-0.345,-0.26,-0.39,-0.235,-0.315,-0.175,-0.39,-0.36,-0.38,-0.325
-0.335,-0.26,-0.345,-0.255,-0.405,-0.24,-0.33,-0.185,-0.4,-0.355,-0.38,-0.31
-0.33,-0.25,-0.34,-0.255,-0.39,-0.255,-0.32,-0.205,-0.415,-0.36,-0.385,-0.3
-0.33,-0.265,-0.33,-0.25,-0.395,-0.235,-0.33,-0.205,-0.4,-0.365,-0.39,-0.31
-0.33,-0.265,-0.335,-0.255,-0.39,-0.225,-0.32,-0.19,-0.39,-0.37,-0.38,-0.315
-0.34,-0.27,-0.345,-0.27,-0.395,-0.235,-0.32,-0.185,-0.38,-0.345,-0.365,-0.305
-0.34,-0.265,-0.36,-0.275,-0.41,-0.24,-0.34,-0.18,-0.375,-0.325,-0.36,-0.295
-0.34,-0.255,-0.355,-0.28,-0.415,-0.245,-0.35,-0.19,-0.385,-0.32,-0.355,-0.285
-0.325,-0.245,-0.34,-0.25,-0.415,-0.25,-0.345,-0.195,-0.38,-0.305,-0.365,-0.285
-0.325,-0.255,-0.33,-0.25,-0.405,-0.245,-0.335,-0.185,-0.385,-0.3,-0.365,-0.28
-0.325,-0.275,-0.335,-0.255,-0.395,-0.22,-0.335,-0.2,-0.365,-0.29,-0.365,-0.3
-0.345,-0.275,-0.345,-0.27,-0.405,-0.225,-0.34,-0.18,-0.36,-0.27,-0.35,-0.305
-0.35,-0.275,-0.365,-0.275,-0.415,-0.225,-0.335,-0.19,-0.345,-0.25,-0.35,-0.3
-0.34,-0.255,-0.37,-0.275,-0.42,-0.25,-0.345,-0.205,-0.345,-0.235,-0.345,-0.285
-0.33,-0.255,-0.35,-0.27,-0.41,-0.245,-0.36,-0.205,-0.345,-0.225,-0.355,-0.29
-0.32,-0.26,-0.34,-0.26,-0.42,-0.24,-0.345,-0.195,-0.34,-0.22,-0.375,-0.29
-0.31,-0.265,-0.335,-0.26,-0.4,-0.23,-0.335,-0.205,-0.33,-0.24,-0.385,-0.305
-0.305,-0.285,-0.36,-0.265,-0.4,-0.24,-0.345,-0.195,-0.31,-0.21,-0.375,-0.315
-0.305,-0.28,-0.355,-0.28,-0.405,-0.24,-0.355,-0.195,-0.31,-0.19,-0.355,-0.29
-0.275,-0.265,-0.34,-0.28,-0.415,-0.25,-0.37,-0.21,-0.315,-0.195,-0.355,-0.3
-0.27,-0.26,-0.335,-0.265,-0.42,-0.24,-0.36,-0.215,-0.325,-0.185,-0.35,-0.295
-0.255,-0.255,-0.335,-0.255,-0.4,-0.235,-0.355,-0.215,-0.32,-0.185,-0.355,-0.285
-0.26,-0.25,-0.32,-0.26,-0.395,-0.23,-0.345,-0.205,-0.305,-0.195,-0.37,-0.3
-0.265,-0.255,-0.335,-0.28,-0.385,-0.235,-0.355,-0.195,-0.295,-0.165,-0.355,-0.305
-0.26,-0.25,-0.355,-0.275,-0.405,-0.23,-0.355,-0.205,-0.295,-0.17,-0.355,-0.305
-0.25,-0.24,-0.35,-0.28,-0.41,-0.235,-0.365,-0.205,-0.295,-0.18,-0.355,-0.3
-0.235,-0.23,-0.345,-0.265,-0.41,-0.24,-0.355,-0.22,-0.3,-0.165,-0.375,-0.295
-0.235,-0.235,-0.34,-0.255,-0.405,-0.23,-0.355,-0.22,-0.31,-0.175,-0.38,-0.305
-0.22,-0.225,-0.335,-0.27,-0.395,-0.21,-0.35,-0.205,-0.295,-0.2,-0.38,-0.305
-0.235,-0.235,-0.35,-0.265,-0.405,-0.22,-0.355,-0.2,-0.285,-0.17,-0.37,-0.315
-0.235,-0.24,-0.37,-0.285,-0.41,-0.225,-0.36,-0.2,-0.285,-0.16,-0.36,-0.295
-0.22,-0.225,-0.36,-0.285,-0.41,-0.235,-0.38,-0.205,-0.295,-0.16,-0.36,-0.29
-0.23,-0.215,-0.355,-0.27,-0.415,-0.23,-0.37,-0.22,-0.31,-0.17,-0.37,-0.3
-0.225,-0.235,-0.35,-0.26,-0.415,-0.225,-0.365,-0.22,-0.305,-0.175,-0.395,-0.305
-0.235,-0.23,-0.345,-0.265,-0.405,-0.21,-0.36,-0.22,-0.305,-0.185,-0.395,-0.315
-0.245,-0.225,-0.365,-0.26,-0.395,-0.21,-0.365,-0.2,-0.295,-0.185,-0.38,-0.325
-0.255,-0.215,-0.36,-0.28,-0.405,-0.215,-0.38,-0.215,-0.29,-0.18,-0.365,-0.31
-0.24,-0.205,-0.36,-0.27,-0.41,-0.22,-0.38,-0.205,-0.29,-0.17,-0.355,-0.3
-0.23,-0.2,-0.35,-0.275,-0.41,-0.225,-0.385,-0.215,-0.305,-0.17,-0.375,-0.31
-0.23,-0.21,-0.345,-0.265,-0.4,-0.225,-0.37,-0.22,-0.305,-0.17,-0.38,-0.315
-0.25,-0.225,-0.355,-0.255,-0.395,-0.21,-0.365,-0.205,-0.295,-0.18,-0.375,-0.325
-0.255,-0.23,-0.355,-0.275,-0.395,-0.215,-0.36,-0.195,-0.29,-0.18,-0.37,-0.335
-0.25,-0.225,-0.365,-0.28,-0.395,-0.225,-0.365,-0.2,-0.305,-0.18,-0.37,-0.325
-0.23,-0.215,-0.36,-0.275,-0.405,-0.225,-0.375,-0.205,-0.31,-0.18,-0.37,-0.305
-0.205,-0.21,-0.345,-0.27,-0.39,-0.22,-0.375,-0.22,-0.32,-0.18,-0.395,-0.32
-0.195,-0.235,-0.345,-0.26,-0.37,-0.215,-0.37,-0.225,-0.325,-0.2,-0.405,-0.315
-0.21,-0.24,-0.35,-0.265,-0.365,-0.205,-0.36,-0.225,-0.32,-0.195,-0.405,-0.34
-0.23,-0.255,-0.355,-0.26,-0.355,-0.215,-0.355,-0.2,-0.3,-0.18,-0.395,-0.34
-0.27,-0.245,-0.36,-0.27,-0.355,-0.22,-0.365,-0.195,-0.315,-0.175,-0.4,-0.345
-0.27,-0.235,-0.355,-0.28,-0.355,-0.24,-0.37,-0.205,-0.315,-0.19,-0.4,-0.345
-0.285,-0.23,-0.35,-0.26,-0.35,-0.235,-0.37,-0.225,-0.325,-0.19,-0.41,-0.325
-0.285,-0.235,-0.335,-0.255,-0.34,-0.23,-0.36,-0.22,-0.325,-0.2,-0.405,-0.32
-0.31,-0.245,-0.335,-0.26,-0.33,-0.21,-0.355,-0.215,-0.32,-0.195,-0.41,-0.33
-0.33,-0.27,-0.355,-0.27,-0.325,-0.21,-0.35,-0.2,-0.31,-0.19,-0.41,-0.335
-0.34,-0.26,-0.345,-0.27,-0.34,-0.21,-0.355,-0.195,-0.315,-0.195,-0.4,-0.32
-0.34,-0.25,-0.34,-0.275,-0.345,-0.215,-0.375,-0.21,-0.33,-0.18,-0.4,-0.325
-0.345,-0.24,-0.33,-0.265,-0.345,-0.21,-0.355,-0.22,-0.34,-0.19,-0.41,-0.33
-0.35,-0.24,-0.34,-0.25,-0.325,-0.19,-0.355,-0.215,-0.335,-0.2,-0.42,-0.33
-0.35,-0.255,-0.345,-0.25,-0.3,-0.195,-0.34,-0.205,-0.325,-0.215,-0.415,-0.35
-0.34,-0.26,-0.35,-0.26,-0.305,-0.185,-0.34,-0.19,-0.315,-0.205,-0.41,-0.345
-0.355,-0.265,-0.355,-0.265,-0.305,-0.185,-0.355,-0.2,-0.32,-0.2,-0.395,-0.335
-0.345,-0.255,-0.35,-0.275,-0.32,-0.19,-0.365,-0.205,-0.325,-0.19,-0.39,-0.34
-0.34,-0.245,-0.335,-0.265,-0.3,-0.19,-0.365,-0.21,-0.33,-0.19,-0.395,-0.335
-0.34,-0.245,-0.33,-0.255,-0.315,-0.18,-0.35,-0.21,-0.34,-0.195,-0.405,-0.33
-0.345,-0.26,-0.33,-0.25,-0.295,-0.175,-0.35,-0.195,-0.325,-0.21,-0.405,-0.34
-0.355,-0.255,-0.33,-0.265,-0.305,-0.175,-0.35,-0.19,-0.31,-0.205,-0.39,-0.35
-0.37,-0.26,-0.33,-0.26,-0.32,-0.175,-0.355,-0.195,-0.315,-0.205,-0.39,-0.34
-0.355,-0.255,-0.305,-0.265,-0.33,-0.175,-0.365,-0.195,-0.325,-0.2,-0.395,-0.325
-0.37,-0.24,-0.285,-0.25,-0.32,-0.16,-0.37,-0.21,-0.33,-0.2,-0.405,-0.32
-0.345,-0.24,-0.275,-0.235,-0.3,-0.155,-0.35,-0.21,-0.335,-0.22,-0.405,-0.33
-0.34,-0.26,-0.28,-0.26,-0.295,-0.15,-0.345,-0.2,-0.345,-0.22,-0.415,-0.355
-0.36,-0.26,-0.285,-0.26,-0.31,-0.145,-0.345,-0.195,-0.335,-0.22,-0.415,-0.365
-0.38,-0.25,-0.29,-0.25,-0.325,-0.165,-0.35,-0.185,-0.335,-0.205,-0.42,-0.355
-0.36,-0.24,-0.275,-0.25,-0.32,-0.16,-0.36,-0.19,-0.34,-0.185,-0.405,-0.335
-0.345,-0.235,-0.26,-0.24,-0.3,-0.185,-0.35,-0.205,-0.345,-0.2,-0.405,-0.315
-0.35,-0.24,-0.245,-0.22,-0.28,-0.18,-0.325,-0.21,-0.345,-0.21,-0.405,-0.315
-0.35,-0.255,-0.24,-0.215,-0.295,-0.17,-0.32,-0.205,-0.345,-0.215,-0.43,-0.33
-0.355,-0.27,-0.24,-0.23,-0.33,-0.175,-0.295,-0.19,-0.335,-0.2,-0.41,-0.34
-0.38,-0.285,-0.24,-0.24,-0.365,-0.175,-0.295,-0.19,-0.335,-0.21,-0.41,-0.34
-0.39,-0.29,-0.235,-0.225,-0.385,-0.19,-0.31,-0.195,-0.34,-0.2,-0.405,-0.32
-0.395,-0.31,-0.225,-0.22,-0.39,-0.185,-0.285,-0.205,-0.355,-0.2,-0.41,-0.33
-0.425,-0.33,-0.22,-0.195,-0.395,-0.2,-0.28,-0.195,-0.345,-0.205,-0.42,-0.34
-0.455,-0.365,-0.23,-0.2,-0.395,-0.19,-0.265,-0.185,-0.35,-0.21,-0.42,-0.35
-0.475,-0.37,-0.24,-0.21,-0.41,-0.195,-0.25,-0.175,-0.335,-0.2,-0.415,-0.35
-0.51,-0.35,-0.255,-0.2,-0.42,-0.19,-0.26,-0.175,-0.33,-0.2,-0.4,-0.35
-0.545,-0.26,-0.255,-0.215,-0.44,-0.215,-0.265,-0.17,-0.335,-0.19,-0.405,-0.345
-0.54,-0.135,-0.24,-0.19,-0.43,-0.22,-0.255,-0.175,-0.34,-0.2,-0.405,-0.325
-0.495,-0.02,-0.24,-0.195,-0.42,-0.205,-0.24,-0.175,-0.35,-0.22,-0.42,-0.335
-0.405,0.035,-0.25,-0.195,-0.415,-0.205,-0.225,-0.16,-0.335,-0.225,-0.405,-0.345
-0.295,0.095,-0.27,-0.19,-0.41,-0.21,-0.23,-0.14,-0.33,-0.22,-0.415,-0.36
-0.16,0.185,-0.27,-0.21,-0.43,-0.215,-0.245,-0.15,-0.335,-0.2,-0.4,-0.355
0.04,0.315,-0.24,-0.21,-0.435,-0.215,-0.265,-0.155,-0.34,-0.195,-0.39,-0.35
0.315,0.45,-0.23,-0.2,-0.43,-0.22,-0.265,-0.165,-0.345,-0.2,-0.395,-0.325
0.595,0.515,-0.225,-0.21,-0.43,-0.22,-0.265,-0.155,-0.355,-0.195,-0.395,-0.35
0.8,0.45,-0.265,-0.225,-0.42,-0.215,-0.27,-0.14,-0.345,-0.21,-0.395,-0.35
0.885,0.175,-0.295,-0.22,-0.42,-0.21,-0.255,-0.12,-0.33,-0.195,-0.39,-0.355
0.795,-0.18,-0.305,-0.23,-0.44,-0.215,-0.26,-0.115,-0.335,-0.19,-0.38,-0.36
0.52,-0.385,-0.325,-0.235,-0.445,-0.23,-0.275,-0.125,-0.34,-0.185,-0.365,-0.36
0.13,-0.395,-0.315,-0.225,-0.43,-0.215,-0.285,-0.145,-0.35,-0.19,-0.345,-0.345
-0.215,-0.345,-0.325,-0.22,-0.43,-0.205,-0.275,-0.15,-0.36,-0.2,-0.35,-0.33
-0.425,-0.31,-0.33,-0.235,-0.425,-0.205,-0.26,-0.13,-0.355,-0.2,-0.345,-0.345
-0.5,-0.29,-0.345,-0.24,-0.43,-0.2,-0.225,-0.12,-0.345,-0.19,-0.335,-0.345
-0.49,-0.275,-0.36,-0.23,-0.43,-0.22,-0.23,-0.13,-0.34,-0.205,-0.34,-0.355
-0.45,-0.265,-0.365,-0.25,-0.445,-0.23,-0.25,-0.15,-0.35,-0.19,-0.34,-0.345
-0.4,-0.235,-0.355,-0.255,-0.44,-0.23,-0.285,-0.15,-0.345,-0.19,-0.345,-0.33
-0.39,-0.25,-0.345,-0.245,-0.455,-0.215,-0.3,-0.16,-0.355,-0.19,-0.345,-0.33
-0.395,-0.265,-0.34,-0.24,-0.43,-0.215,-0.285,-0.16,-0.345,-0.19,-0.335,-0.33
-0.395,-0.255,-0.335,-0.245,-0.44,-0.22,-0.3,-0.155,-0.33,-0.18,-0.315,-0.32
-0.4,-0.245,-0.36,-0.25,-0.455,-0.25,-0.325,-0.15,-0.325,-0.185,-0.29,-0.315
-0.39,-0.24,-0.355,-0.255,-0.48,-0.28,-0.345,-0.17,-0.335,-0.185,-0.275,-0.3
-0.38,-0.24,-0.345,-0.24,-0.51,-0.305,-0.345,-0.17,-0.335,-0.18,-0.275,-0.3
-0.385,-0.25,-0.335,-0.235,-0.545,-0.325,-0.335,-0.185,-0.345,-0.19,-0.285,-0.31
-0.385,-0.26,-0.355,-0.24,-0.565,-0.34,-0.325,-0.16,-0.33,-0.205,-0.3,-0.315
-0.4,-0.265,-0.35,-0.245,-0.58,-0.37,-0.32,-0.145,-0.325,-0.185,-0.295,-0.325
-0.41,-0.275,-0.375,-0.255,-0.635,-0.36,-0.33,-0.16,-0.325,-0.185,-0.3,-0.315
-0.41,-0.255,-0.375,-0.26,-0.665,-0.275,-0.35,-0.16,-0.33,-0.185,-0.31,-0.295
-0.39,-0.24,-0.365,-0.255,-0.63,-0.155,-0.355,-0.18,-0.33,-0.18,-0.305,-0.27
-0.39,-0.245,-0.365,-0.23,-0.51,0,-0.36,-0.18,-0.31,-0.2,-0.305,-0.28
-0.405,-0.26,-0.35,-0.24,-0.355,0.115,-0.355,-0.18,-0.29,-0.2,-0.31,-0.29
-0.405,-0.26,-0.37,-0.245,-0.2,0.22,-0.36,-0.16,-0.27,-0.19,-0.31,-0.295
-0.415,-0.265,-0.38,-0.255,-0.025,0.34,-0.365,-0.18,-0.265,-0.195,-0.32,-0.3
-0.41,-0.25,-0.365,-0.265,0.24,0.455,-0.375,-0.19,-0.28,-0.185,-0.295,-0.295
-0.395,-0.25,-0.37,-0.265,0.54,0.58,-0.38,-0.195,-0.3,-0.18,-0.295,-0.29
-0.395,-0.245,-0.355,-0.25,0.755,0.675,-0.375,-0.2,-0.295,-0.19,-0.295,-0.295
-0.4,-0.25,-0.37,-0.245,0.845,0.635,-0.37,-0.175,-0.27,-0.185,-0.31,-0.315
-0.415,-0.265,-0.38,-0.25,0.795,0.38,-0.37,-0.175,-0.24,-0.18,-0.33,-0.315
-0.415,-0.255,-0.385,-0.27,0.55,0.005,-0.37,-0.175,-0.235,-0.165,-0.335,-0.315
-0.415,-0.25,-0.385,-0.3,0.12,-0.255,-0.395,-0.19,-0.235,-0.165,-0.34,-0.31
-0.4,-0.245,-0.4,-0.32,-0.285,-0.305,-0.395,-0.205,-0.235,-0.155,-0.365,-0.305
-0.39,-0.245,-0.43,-0.33,-0.52,-0.26,-0.385,-0.195,-0.235,-0.165,-0.375,-0.31
-0.39,-0.255,-0.465,-0.355,-0.585,-0.255,-0.39,-0.19,-0.23,-0.165,-0.4,-0.325
-0.41,-0.26,-0.485,-0.385,-0.56,-0.25,-0.39,-0.185,-0.215,-0.15,-0.405,-0.33
-0.415,-0.25,-0.52,-0.37,-0.52,-0.26,-0.38,-0.175,-0.22,-0.14,-0.4,-0.335
-0.405,-0.24,-0.555,-0.32,-0.5,-0.255,-0.39,-0.18,-0.23,-0.14,-0.415,-0.325
-0.395,-0.215,-0.525,-0.19,-0.47,-0.26,-0.38,-0.195,-0.23,-0.145,-0.415,-0.315
-0.395,-0.23,-0.435,-0.05,-0.475,-0.26,-0.385,-0.19,-0.255,-0.16,-0.425,-0.315
-0.395,-0.25,-0.305,0.075,-0.47,-0.25,-0.37,-0.2,-0.245,-0.16,-0.425,-0.335
